#Raman spectra
#Laser energy   2.33 eV
#Raman shift (cm-1), Raman Spectra (XX,YY,ZZ,s+s+,s-s-,XY,YX,s+s-,s-s+)
   100.0000  0.19975866E+002  0.34024860E+002  0.22779581E+003  0.24111507E+002  0.24112739E+002  0.11299742E+002  0.11251924E+002  0.14190504E+002  0.14137642E+002
   100.5506  0.20101543E+002  0.34243896E+002  0.22922457E+003  0.24253689E+002  0.24254922E+002  0.11367454E+002  0.11319308E+002  0.14288390E+002  0.14235200E+002
   101.1011  0.20228410E+002  0.34465059E+002  0.23066683E+003  0.24397393E+002  0.24398626E+002  0.11436045E+002  0.11387568E+002  0.14387294E+002  0.14333770E+002
   101.6517  0.20356482E+002  0.34688376E+002  0.23212273E+003  0.24542632E+002  0.24543866E+002  0.11505524E+002  0.11456712E+002  0.14487227E+002  0.14433369E+002
   102.2022  0.20485775E+002  0.34913875E+002  0.23359247E+003  0.24689423E+002  0.24690659E+002  0.11575899E+002  0.11526748E+002  0.14588206E+002  0.14534009E+002
   102.7528  0.20616304E+002  0.35141585E+002  0.23507621E+003  0.24837782E+002  0.24839019E+002  0.11647178E+002  0.11597685E+002  0.14690245E+002  0.14635706E+002
   103.3033  0.20748084E+002  0.35371535E+002  0.23657413E+003  0.24987725E+002  0.24988964E+002  0.11719370E+002  0.11669531E+002  0.14793358E+002  0.14738474E+002
   103.8539  0.20881133E+002  0.35603754E+002  0.23808641E+003  0.25139270E+002  0.25140510E+002  0.11792485E+002  0.11742297E+002  0.14897560E+002  0.14842328E+002
   104.4044  0.21015466E+002  0.35838272E+002  0.23961324E+003  0.25292434E+002  0.25293676E+002  0.11866532E+002  0.11815991E+002  0.15002868E+002  0.14947284E+002
   104.9550  0.21151100E+002  0.36075120E+002  0.24115480E+003  0.25447234E+002  0.25448477E+002  0.11941522E+002  0.11890623E+002  0.15109296E+002  0.15053357E+002
   105.5055  0.21288052E+002  0.36314329E+002  0.24271129E+003  0.25603688E+002  0.25604933E+002  0.12017463E+002  0.11966203E+002  0.15216861E+002  0.15160564E+002
   106.0561  0.21426339E+002  0.36555930E+002  0.24428289E+003  0.25761815E+002  0.25763062E+002  0.12094366E+002  0.12042742E+002  0.15325579E+002  0.15268920E+002
   106.6066  0.21565978E+002  0.36799956E+002  0.24586982E+003  0.25921633E+002  0.25922883E+002  0.12172242E+002  0.12120249E+002  0.15435467E+002  0.15378442E+002
   107.1572  0.21706987E+002  0.37046439E+002  0.24747225E+003  0.26083162E+002  0.26084414E+002  0.12251101E+002  0.12198736E+002  0.15546541E+002  0.15489147E+002
   107.7077  0.21849384E+002  0.37295413E+002  0.24909040E+003  0.26246420E+002  0.26247675E+002  0.12330955E+002  0.12278213E+002  0.15658818E+002  0.15601052E+002
   108.2583  0.21993187E+002  0.37546910E+002  0.25072447E+003  0.26411429E+002  0.26412686E+002  0.12411816E+002  0.12358693E+002  0.15772316E+002  0.15714174E+002
   108.8088  0.22138415E+002  0.37800966E+002  0.25237468E+003  0.26578209E+002  0.26579469E+002  0.12493694E+002  0.12440186E+002  0.15887053E+002  0.15828531E+002
   109.3594  0.22285087E+002  0.38057615E+002  0.25404123E+003  0.26746779E+002  0.26748042E+002  0.12576602E+002  0.12522705E+002  0.16003047E+002  0.15944141E+002
   109.9099  0.22433222E+002  0.38316893E+002  0.25572435E+003  0.26917162E+002  0.26918428E+002  0.12660552E+002  0.12606261E+002  0.16120316E+002  0.16061022E+002
   110.4605  0.22582840E+002  0.38578836E+002  0.25742424E+003  0.27089379E+002  0.27090648E+002  0.12745556E+002  0.12690868E+002  0.16238878E+002  0.16179194E+002
   111.0110  0.22733960E+002  0.38843481E+002  0.25914115E+003  0.27263453E+002  0.27264725E+002  0.12831628E+002  0.12776537E+002  0.16358754E+002  0.16298675E+002
   111.5616  0.22886602E+002  0.39110865E+002  0.26087528E+003  0.27439405E+002  0.27440680E+002  0.12918781E+002  0.12863284E+002  0.16479963E+002  0.16419484E+002
   112.1121  0.23040788E+002  0.39381025E+002  0.26262688E+003  0.27617258E+002  0.27618537E+002  0.13007028E+002  0.12951119E+002  0.16602523E+002  0.16541642E+002
   112.6627  0.23196538E+002  0.39654002E+002  0.26439619E+003  0.27797037E+002  0.27798320E+002  0.13096384E+002  0.13040059E+002  0.16726457E+002  0.16665169E+002
   113.2132  0.23353872E+002  0.39929834E+002  0.26618343E+003  0.27978764E+002  0.27980051E+002  0.13186861E+002  0.13130115E+002  0.16851783E+002  0.16790084E+002
   113.7638  0.23512814E+002  0.40208560E+002  0.26798885E+003  0.28162465E+002  0.28163756E+002  0.13278475E+002  0.13221304E+002  0.16978524E+002  0.16916409E+002
   114.3143  0.23673384E+002  0.40490223E+002  0.26981271E+003  0.28348164E+002  0.28349458E+002  0.13371241E+002  0.13313639E+002  0.17106700E+002  0.17044166E+002
   114.8649  0.23835606E+002  0.40774863E+002  0.27165525E+003  0.28535886E+002  0.28537185E+002  0.13465174E+002  0.13407136E+002  0.17236333E+002  0.17173375E+002
   115.4154  0.23999501E+002  0.41062523E+002  0.27351673E+003  0.28725657E+002  0.28726960E+002  0.13560288E+002  0.13501811E+002  0.17367445E+002  0.17304060E+002
   115.9660  0.24165093E+002  0.41353246E+002  0.27539740E+003  0.28917504E+002  0.28918811E+002  0.13656601E+002  0.13597678E+002  0.17500060E+002  0.17436242E+002
   116.5165  0.24332406E+002  0.41647075E+002  0.27729754E+003  0.29111453E+002  0.29112765E+002  0.13754128E+002  0.13694754E+002  0.17634200E+002  0.17569945E+002
   117.0671  0.24501463E+002  0.41944054E+002  0.27921741E+003  0.29307531E+002  0.29308848E+002  0.13852885E+002  0.13793056E+002  0.17769888E+002  0.17705192E+002
   117.6176  0.24672289E+002  0.42244231E+002  0.28115729E+003  0.29505767E+002  0.29507088E+002  0.13952891E+002  0.13892601E+002  0.17907148E+002  0.17842007E+002
   118.1682  0.24844908E+002  0.42547649E+002  0.28311746E+003  0.29706188E+002  0.29707515E+002  0.14054161E+002  0.13993405E+002  0.18046006E+002  0.17980414E+002
   118.7187  0.25019346E+002  0.42854357E+002  0.28509820E+003  0.29908825E+002  0.29910156E+002  0.14156714E+002  0.14095486E+002  0.18186485E+002  0.18120438E+002
   119.2693  0.25195628E+002  0.43164402E+002  0.28709980E+003  0.30113705E+002  0.30115042E+002  0.14260569E+002  0.14198863E+002  0.18328611E+002  0.18262104E+002
   119.8198  0.25373781E+002  0.43477833E+002  0.28912255E+003  0.30320860E+002  0.30322202E+002  0.14365742E+002  0.14303554E+002  0.18472410E+002  0.18405438E+002
   120.3704  0.25553831E+002  0.43794700E+002  0.29116675E+003  0.30530320E+002  0.30531667E+002  0.14472254E+002  0.14409577E+002  0.18617908E+002  0.18550467E+002
   120.9209  0.25735805E+002  0.44115053E+002  0.29323271E+003  0.30742115E+002  0.30743468E+002  0.14580124E+002  0.14516952E+002  0.18765133E+002  0.18697217E+002
   121.4715  0.25919731E+002  0.44438944E+002  0.29532073E+003  0.30956279E+002  0.30957638E+002  0.14689371E+002  0.14625698E+002  0.18914111E+002  0.18845716E+002
   122.0220  0.26105636E+002  0.44766424E+002  0.29743114E+003  0.31172843E+002  0.31174208E+002  0.14800015E+002  0.14735837E+002  0.19064870E+002  0.18995991E+002
   122.5726  0.26293550E+002  0.45097549E+002  0.29956425E+003  0.31391841E+002  0.31393212E+002  0.14912078E+002  0.14847387E+002  0.19217440E+002  0.19148071E+002
   123.1231  0.26483500E+002  0.45432371E+002  0.30172039E+003  0.31613306E+002  0.31614683E+002  0.15025581E+002  0.14960370E+002  0.19371849E+002  0.19301985E+002
   123.6737  0.26675518E+002  0.45770946E+002  0.30389989E+003  0.31837273E+002  0.31838655E+002  0.15140544E+002  0.15074809E+002  0.19528126E+002  0.19457762E+002
   124.2242  0.26869632E+002  0.46113331E+002  0.30610310E+003  0.32063776E+002  0.32065165E+002  0.15256990E+002  0.15190723E+002  0.19686303E+002  0.19615433E+002
   124.7748  0.27065874E+002  0.46459584E+002  0.30833035E+003  0.32292851E+002  0.32294247E+002  0.15374942E+002  0.15308137E+002  0.19846410E+002  0.19775029E+002
   125.3253  0.27264275E+002  0.46809763E+002  0.31058200E+003  0.32524536E+002  0.32525938E+002  0.15494422E+002  0.15427073E+002  0.20008478E+002  0.19936581E+002
   125.8759  0.27464866E+002  0.47163927E+002  0.31285840E+003  0.32758866E+002  0.32760275E+002  0.15615455E+002  0.15547554E+002  0.20172541E+002  0.20100120E+002
   126.4264  0.27667680E+002  0.47522138E+002  0.31515992E+003  0.32995880E+002  0.32997296E+002  0.15738063E+002  0.15669605E+002  0.20338629E+002  0.20265681E+002
   126.9770  0.27872750E+002  0.47884458E+002  0.31748693E+003  0.33235616E+002  0.33237039E+002  0.15862273E+002  0.15793249E+002  0.20506778E+002  0.20433296E+002
   127.5275  0.28080110E+002  0.48250950E+002  0.31983981E+003  0.33478114E+002  0.33479545E+002  0.15988108E+002  0.15918512E+002  0.20677021E+002  0.20603000E+002
   128.0781  0.28289793E+002  0.48621679E+002  0.32221894E+003  0.33723414E+002  0.33724852E+002  0.16115595E+002  0.16045419E+002  0.20849394E+002  0.20774827E+002
   128.6286  0.28501835E+002  0.48996710E+002  0.32462472E+003  0.33971556E+002  0.33973001E+002  0.16244759E+002  0.16173997E+002  0.21023931E+002  0.20948813E+002
   129.1792  0.28716271E+002  0.49376110E+002  0.32705754E+003  0.34222583E+002  0.34224036E+002  0.16375629E+002  0.16304272E+002  0.21200670E+002  0.21124994E+002
   129.7297  0.28933138E+002  0.49759948E+002  0.32951781E+003  0.34476537E+002  0.34477997E+002  0.16508230E+002  0.16436272E+002  0.21379647E+002  0.21303407E+002
   130.2803  0.29152472E+002  0.50148293E+002  0.33200595E+003  0.34733460E+002  0.34734929E+002  0.16642591E+002  0.16570024E+002  0.21560901E+002  0.21484090E+002
   130.8308  0.29374311E+002  0.50541217E+002  0.33452237E+003  0.34993399E+002  0.34994875E+002  0.16778742E+002  0.16705558E+002  0.21744470E+002  0.21667083E+002
   131.3814  0.29598692E+002  0.50938792E+002  0.33706752E+003  0.35256397E+002  0.35257881E+002  0.16916710E+002  0.16842901E+002  0.21930394E+002  0.21852423E+002
   131.9319  0.29825656E+002  0.51341092E+002  0.33964182E+003  0.35522500E+002  0.35523993E+002  0.17056526E+002  0.16982084E+002  0.22118713E+002  0.22040153E+002
   132.4825  0.30055242E+002  0.51748192E+002  0.34224572E+003  0.35791756E+002  0.35793257E+002  0.17198222E+002  0.17123138E+002  0.22309469E+002  0.22230312E+002
   133.0330  0.30287491E+002  0.52160170E+002  0.34487969E+003  0.36064212E+002  0.36065722E+002  0.17341827E+002  0.17266094E+002  0.22502704E+002  0.22422944E+002
   133.5836  0.30522444E+002  0.52577104E+002  0.34754418E+003  0.36339917E+002  0.36341436E+002  0.17487374E+002  0.17410983E+002  0.22698461E+002  0.22618091E+002
   134.1341  0.30760142E+002  0.52999073E+002  0.35023966E+003  0.36618921E+002  0.36620449E+002  0.17634897E+002  0.17557839E+002  0.22896784E+002  0.22815797E+002
   134.6847  0.31000630E+002  0.53426160E+002  0.35296663E+003  0.36901275E+002  0.36902812E+002  0.17784428E+002  0.17706694E+002  0.23097718E+002  0.23016107E+002
   135.2352  0.31243951E+002  0.53858449E+002  0.35572557E+003  0.37187030E+002  0.37188577E+002  0.17936001E+002  0.17857583E+002  0.23301309E+002  0.23219067E+002
   135.7858  0.31490149E+002  0.54296023E+002  0.35851699E+003  0.37476240E+002  0.37477796E+002  0.18089652E+002  0.18010541E+002  0.23507605E+002  0.23424724E+002
   136.3363  0.31739270E+002  0.54738971E+002  0.36134139E+003  0.37768958E+002  0.37770524E+002  0.18245417E+002  0.18165603E+002  0.23716654E+002  0.23633125E+002
   136.8869  0.31991361E+002  0.55187380E+002  0.36419929E+003  0.38065240E+002  0.38066815E+002  0.18403333E+002  0.18322806E+002  0.23928504E+002  0.23844322E+002
   137.4374  0.32246469E+002  0.55641341E+002  0.36709124E+003  0.38365141E+002  0.38366726E+002  0.18563436E+002  0.18482187E+002  0.24143205E+002  0.24058362E+002
   137.9880  0.32504643E+002  0.56100947E+002  0.37001777E+003  0.38668718E+002  0.38670314E+002  0.18725765E+002  0.18643785E+002  0.24360811E+002  0.24275298E+002
   138.5385  0.32765932E+002  0.56566292E+002  0.37297944E+003  0.38976032E+002  0.38977637E+002  0.18890360E+002  0.18807638E+002  0.24581372E+002  0.24495182E+002
   139.0891  0.33030385E+002  0.57037472E+002  0.37597680E+003  0.39287140E+002  0.39288756E+002  0.19057261E+002  0.18973787E+002  0.24804943E+002  0.24718067E+002
   139.6396  0.33298055E+002  0.57514586E+002  0.37901045E+003  0.39602104E+002  0.39603731E+002  0.19226509E+002  0.19142273E+002  0.25031579E+002  0.24944010E+002
   140.1902  0.33568995E+002  0.57997734E+002  0.38208096E+003  0.39920987E+002  0.39922625E+002  0.19398146E+002  0.19313137E+002  0.25261336E+002  0.25173065E+002
   140.7407  0.33843256E+002  0.58487018E+002  0.38518893E+003  0.40243852E+002  0.40245500E+002  0.19572216E+002  0.19486423E+002  0.25494271E+002  0.25405290E+002
   141.2913  0.34120895E+002  0.58982544E+002  0.38833498E+003  0.40570763E+002  0.40572423E+002  0.19748761E+002  0.19662175E+002  0.25730445E+002  0.25640744E+002
   141.8418  0.34401966E+002  0.59484418E+002  0.39151973E+003  0.40901787E+002  0.40903458E+002  0.19927828E+002  0.19840436E+002  0.25969916E+002  0.25879488E+002
   142.3924  0.34686527E+002  0.59992751E+002  0.39474382E+003  0.41236992E+002  0.41238675E+002  0.20109463E+002  0.20021254E+002  0.26212746E+002  0.26121582E+002
   142.9429  0.34974636E+002  0.60507652E+002  0.39800790E+003  0.41576447E+002  0.41578141E+002  0.20293713E+002  0.20204676E+002  0.26459000E+002  0.26367090E+002
   143.4935  0.35266351E+002  0.61029237E+002  0.40131263E+003  0.41920221E+002  0.41921928E+002  0.20480627E+002  0.20390750E+002  0.26708740E+002  0.26616076E+002
   144.0440  0.35561734E+002  0.61557623E+002  0.40465870E+003  0.42268388E+002  0.42270107E+002  0.20670254E+002  0.20579525E+002  0.26962035E+002  0.26868606E+002
   144.5946  0.35860846E+002  0.62092928E+002  0.40804678E+003  0.42621021E+002  0.42622752E+002  0.20862645E+002  0.20771052E+002  0.27218950E+002  0.27124749E+002
   145.1451  0.36163750E+002  0.62635275E+002  0.41147760E+003  0.42978195E+002  0.42979938E+002  0.21057853E+002  0.20965383E+002  0.27479557E+002  0.27384572E+002
   145.6957  0.36470511E+002  0.63184788E+002  0.41495187E+003  0.43339986E+002  0.43341742E+002  0.21255930E+002  0.21162571E+002  0.27743925E+002  0.27648147E+002
   146.2462  0.36781195E+002  0.63741594E+002  0.41847032E+003  0.43706474E+002  0.43708243E+002  0.21456932E+002  0.21362670E+002  0.28012128E+002  0.27915547E+002
   146.7968  0.37095868E+002  0.64305824E+002  0.42203372E+003  0.44077738E+002  0.44079520E+002  0.21660914E+002  0.21565737E+002  0.28284239E+002  0.28186846E+002
   147.3473  0.37414600E+002  0.64877611E+002  0.42564282E+003  0.44453861E+002  0.44455656E+002  0.21867934E+002  0.21771828E+002  0.28560337E+002  0.28462120E+002
   147.8979  0.37737460E+002  0.65457090E+002  0.42929842E+003  0.44834925E+002  0.44836734E+002  0.22078051E+002  0.21981002E+002  0.28840497E+002  0.28741447E+002
   148.4484  0.38064521E+002  0.66044402E+002  0.43300132E+003  0.45221017E+002  0.45222840E+002  0.22291324E+002  0.22193320E+002  0.29124802E+002  0.29024908E+002
   148.9990  0.38395855E+002  0.66639689E+002  0.43675233E+003  0.45612225E+002  0.45614061E+002  0.22507817E+002  0.22408841E+002  0.29413332E+002  0.29312583E+002
   149.5495  0.38731537E+002  0.67243095E+002  0.44055230E+003  0.46008637E+002  0.46010487E+002  0.22727592E+002  0.22627631E+002  0.29706173E+002  0.29604558E+002
   150.1001  0.39071644E+002  0.67854772E+002  0.44440207E+003  0.46410344E+002  0.46412209E+002  0.22950714E+002  0.22849753E+002  0.30003410E+002  0.29900918E+002
   150.6507  0.39416254E+002  0.68474870E+002  0.44830253E+003  0.46817442E+002  0.46819321E+002  0.23177250E+002  0.23075273E+002  0.30305132E+002  0.30201752E+002
   151.2012  0.39765447E+002  0.69103546E+002  0.45225456E+003  0.47230024E+002  0.47231918E+002  0.23407268E+002  0.23304260E+002  0.30611430E+002  0.30507150E+002
   151.7518  0.40119305E+002  0.69740960E+002  0.45625909E+003  0.47648188E+002  0.47650098E+002  0.23640838E+002  0.23536784E+002  0.30922397E+002  0.30817204E+002
   152.3023  0.40477910E+002  0.70387276E+002  0.46031704E+003  0.48072036E+002  0.48073961E+002  0.23878032E+002  0.23772916E+002  0.31238127E+002  0.31132011E+002
   152.8529  0.40841349E+002  0.71042659E+002  0.46442936E+003  0.48501668E+002  0.48503609E+002  0.24118925E+002  0.24012730E+002  0.31558719E+002  0.31451667E+002
   153.4034  0.41209709E+002  0.71707283E+002  0.46859704E+003  0.48937190E+002  0.48939146E+002  0.24363591E+002  0.24256300E+002  0.31884274E+002  0.31776273E+002
   153.9540  0.41583080E+002  0.72381322E+002  0.47282108E+003  0.49378708E+002  0.49380681E+002  0.24612108E+002  0.24503705E+002  0.32214894E+002  0.32105932E+002
   154.5045  0.41961551E+002  0.73064956E+002  0.47710248E+003  0.49826332E+002  0.49828321E+002  0.24864557E+002  0.24755023E+002  0.32550684E+002  0.32440749E+002
   155.0551  0.42345218E+002  0.73758369E+002  0.48144230E+003  0.50280174E+002  0.50282180E+002  0.25121018E+002  0.25010336E+002  0.32891754E+002  0.32780832E+002
   155.6056  0.42734176E+002  0.74461749E+002  0.48584161E+003  0.50740349E+002  0.50742371E+002  0.25381575E+002  0.25269728E+002  0.33238215E+002  0.33126293E+002
   156.1562  0.43128521E+002  0.75175289E+002  0.49030149E+003  0.51206973E+002  0.51209012E+002  0.25646316E+002  0.25533284E+002  0.33590181E+002  0.33477245E+002
   156.7067  0.43528356E+002  0.75899187E+002  0.49482306E+003  0.51680167E+002  0.51682224E+002  0.25915329E+002  0.25801093E+002  0.33947768E+002  0.33833805E+002
   157.2573  0.43933781E+002  0.76633645E+002  0.49940747E+003  0.52160054E+002  0.52162128E+002  0.26188704E+002  0.26073244E+002  0.34311098E+002  0.34196093E+002
   157.8078  0.44344902E+002  0.77378871E+002  0.50405589E+003  0.52646759E+002  0.52648852E+002  0.26466534E+002  0.26349832E+002  0.34680295E+002  0.34564234E+002
   158.3584  0.44761827E+002  0.78135078E+002  0.50876951E+003  0.53140412E+002  0.53142523E+002  0.26748916E+002  0.26630951E+002  0.35055484E+002  0.34938353E+002
   158.9089  0.45184664E+002  0.78902484E+002  0.51354956E+003  0.53641144E+002  0.53643274E+002  0.27035949E+002  0.26916700E+002  0.35436797E+002  0.35318581E+002
   159.4595  0.45613527E+002  0.79681312E+002  0.51839729E+003  0.54149091E+002  0.54151239E+002  0.27327733E+002  0.27207179E+002  0.35824368E+002  0.35705052E+002
   160.0100  0.46048530E+002  0.80471791E+002  0.52331399E+003  0.54664391E+002  0.54666558E+002  0.27624373E+002  0.27502493E+002  0.36218335E+002  0.36097903E+002
   160.5606  0.46489792E+002  0.81274156E+002  0.52830097E+003  0.55187185E+002  0.55189371E+002  0.27925976E+002  0.27802746E+002  0.36618838E+002  0.36497275E+002
   161.1111  0.46937433E+002  0.82088648E+002  0.53335957E+003  0.55717619E+002  0.55719825E+002  0.28232651E+002  0.28108050E+002  0.37026024E+002  0.36903314E+002
   161.6617  0.47391577E+002  0.82915515E+002  0.53849118E+003  0.56255842E+002  0.56258068E+002  0.28544511E+002  0.28418517E+002  0.37440042E+002  0.37316168E+002
   162.2122  0.47852351E+002  0.83755009E+002  0.54369721E+003  0.56802005E+002  0.56804252E+002  0.28861674E+002  0.28734261E+002  0.37861046E+002  0.37735992E+002
   162.7628  0.48319885E+002  0.84607391E+002  0.54897910E+003  0.57356266E+002  0.57358534E+002  0.29184258E+002  0.29055403E+002  0.38289193E+002  0.38162943E+002
   163.3133  0.48794311E+002  0.85472927E+002  0.55433833E+003  0.57918785E+002  0.57921074E+002  0.29512386E+002  0.29382065E+002  0.38724647E+002  0.38597183E+002
   163.8639  0.49275766E+002  0.86351891E+002  0.55977643E+003  0.58489726E+002  0.58492036E+002  0.29846186E+002  0.29714373E+002  0.39167575E+002  0.39038879E+002
   164.4144  0.49764390E+002  0.87244565E+002  0.56529494E+003  0.59069256E+002  0.59071588E+002  0.30185786E+002  0.30052455E+002  0.39618149E+002  0.39488203E+002
   164.9650  0.50260325E+002  0.88151237E+002  0.57089545E+003  0.59657550E+002  0.59659903E+002  0.30531322E+002  0.30396447E+002  0.40076546E+002  0.39945332E+002
   165.5155  0.50763719E+002  0.89072202E+002  0.57657962E+003  0.60254783E+002  0.60257159E+002  0.30882931E+002  0.30746485E+002  0.40542947E+002  0.40410448E+002
