#Raman spectra
#Laser energy   2.33 eV
#Raman shift (cm-1), Raman Spectra (p=XX,YY,ZZ,XY,YX,nonpol)
   100.0000  0.19975866E+002  0.34024860E+002  0.22779581E+003  0.11299742E+002  0.11251924E+002  0.76414690E+002
   100.5506  0.20101543E+002  0.34243896E+002  0.22922457E+003  0.11367454E+002  0.11319308E+002  0.76897423E+002
   101.1011  0.20228410E+002  0.34465059E+002  0.23066683E+003  0.11436045E+002  0.11387568E+002  0.77384749E+002
   101.6517  0.20356482E+002  0.34688376E+002  0.23212273E+003  0.11505524E+002  0.11456712E+002  0.77876725E+002
   102.2022  0.20485775E+002  0.34913875E+002  0.23359247E+003  0.11575899E+002  0.11526748E+002  0.78373412E+002
   102.7528  0.20616304E+002  0.35141585E+002  0.23507621E+003  0.11647178E+002  0.11597685E+002  0.78874869E+002
   103.3033  0.20748084E+002  0.35371535E+002  0.23657413E+003  0.11719370E+002  0.11669531E+002  0.79381158E+002
   103.8539  0.20881133E+002  0.35603754E+002  0.23808641E+003  0.11792485E+002  0.11742297E+002  0.79892341E+002
   104.4044  0.21015466E+002  0.35838272E+002  0.23961324E+003  0.11866532E+002  0.11815991E+002  0.80408482E+002
   104.9550  0.21151100E+002  0.36075120E+002  0.24115480E+003  0.11941522E+002  0.11890623E+002  0.80929645E+002
   105.5055  0.21288052E+002  0.36314329E+002  0.24271129E+003  0.12017463E+002  0.11966203E+002  0.81455895E+002
   106.0561  0.21426339E+002  0.36555930E+002  0.24428289E+003  0.12094366E+002  0.12042742E+002  0.81987299E+002
   106.6066  0.21565978E+002  0.36799956E+002  0.24586982E+003  0.12172242E+002  0.12120249E+002  0.82523924E+002
   107.1572  0.21706987E+002  0.37046439E+002  0.24747225E+003  0.12251101E+002  0.12198736E+002  0.83065839E+002
   107.7077  0.21849384E+002  0.37295413E+002  0.24909040E+003  0.12330955E+002  0.12278213E+002  0.83613115E+002
   108.2583  0.21993187E+002  0.37546910E+002  0.25072447E+003  0.12411816E+002  0.12358693E+002  0.84165821E+002
   108.8088  0.22138415E+002  0.37800966E+002  0.25237468E+003  0.12493694E+002  0.12440186E+002  0.84724030E+002
   109.3594  0.22285087E+002  0.38057615E+002  0.25404123E+003  0.12576602E+002  0.12522705E+002  0.85287815E+002
   109.9099  0.22433222E+002  0.38316893E+002  0.25572435E+003  0.12660552E+002  0.12606261E+002  0.85857252E+002
   110.4605  0.22582840E+002  0.38578836E+002  0.25742424E+003  0.12745556E+002  0.12690868E+002  0.86432416E+002
   111.0110  0.22733960E+002  0.38843481E+002  0.25914115E+003  0.12831628E+002  0.12776537E+002  0.87013383E+002
   111.5616  0.22886602E+002  0.39110865E+002  0.26087528E+003  0.12918781E+002  0.12863284E+002  0.87600233E+002
   112.1121  0.23040788E+002  0.39381025E+002  0.26262688E+003  0.13007028E+002  0.12951119E+002  0.88193045E+002
   112.6627  0.23196538E+002  0.39654002E+002  0.26439619E+003  0.13096384E+002  0.13040059E+002  0.88791900E+002
   113.2132  0.23353872E+002  0.39929834E+002  0.26618343E+003  0.13186861E+002  0.13130115E+002  0.89396882E+002
   113.7638  0.23512814E+002  0.40208560E+002  0.26798885E+003  0.13278475E+002  0.13221304E+002  0.90008073E+002
   114.3143  0.23673384E+002  0.40490223E+002  0.26981271E+003  0.13371241E+002  0.13313639E+002  0.90625559E+002
   114.8649  0.23835606E+002  0.40774863E+002  0.27165525E+003  0.13465174E+002  0.13407136E+002  0.91249426E+002
   115.4154  0.23999501E+002  0.41062523E+002  0.27351673E+003  0.13560288E+002  0.13501811E+002  0.91879765E+002
   115.9660  0.24165093E+002  0.41353246E+002  0.27539740E+003  0.13656601E+002  0.13597678E+002  0.92516663E+002
   116.5165  0.24332406E+002  0.41647075E+002  0.27729754E+003  0.13754128E+002  0.13694754E+002  0.93160213E+002
   117.0671  0.24501463E+002  0.41944054E+002  0.27921741E+003  0.13852885E+002  0.13793056E+002  0.93810508E+002
   117.6176  0.24672289E+002  0.42244231E+002  0.28115729E+003  0.13952891E+002  0.13892601E+002  0.94467641E+002
   118.1682  0.24844908E+002  0.42547649E+002  0.28311746E+003  0.14054161E+002  0.13993405E+002  0.95131711E+002
   118.7187  0.25019346E+002  0.42854357E+002  0.28509820E+003  0.14156714E+002  0.14095486E+002  0.95802814E+002
   119.2693  0.25195628E+002  0.43164402E+002  0.28709980E+003  0.14260569E+002  0.14198863E+002  0.96481051E+002
   119.8198  0.25373781E+002  0.43477833E+002  0.28912255E+003  0.14365742E+002  0.14303554E+002  0.97166523E+002
   120.3704  0.25553831E+002  0.43794700E+002  0.29116675E+003  0.14472254E+002  0.14409577E+002  0.97859333E+002
   120.9209  0.25735805E+002  0.44115053E+002  0.29323271E+003  0.14580124E+002  0.14516952E+002  0.98559587E+002
   121.4715  0.25919731E+002  0.44438944E+002  0.29532073E+003  0.14689371E+002  0.14625698E+002  0.99267392E+002
   122.0220  0.26105636E+002  0.44766424E+002  0.29743114E+003  0.14800015E+002  0.14735837E+002  0.99982857E+002
   122.5726  0.26293550E+002  0.45097549E+002  0.29956425E+003  0.14912078E+002  0.14847387E+002  0.10070609E+003
   123.1231  0.26483500E+002  0.45432371E+002  0.30172039E+003  0.15025581E+002  0.14960370E+002  0.10143721E+003
   123.6737  0.26675518E+002  0.45770946E+002  0.30389989E+003  0.15140544E+002  0.15074809E+002  0.10217633E+003
   124.2242  0.26869632E+002  0.46113331E+002  0.30610310E+003  0.15256990E+002  0.15190723E+002  0.10292357E+003
   124.7748  0.27065874E+002  0.46459584E+002  0.30833035E+003  0.15374942E+002  0.15308137E+002  0.10367904E+003
   125.3253  0.27264275E+002  0.46809763E+002  0.31058200E+003  0.15494422E+002  0.15427073E+002  0.10444287E+003
   125.8759  0.27464866E+002  0.47163927E+002  0.31285840E+003  0.15615455E+002  0.15547554E+002  0.10521518E+003
   126.4264  0.27667680E+002  0.47522138E+002  0.31515992E+003  0.15738063E+002  0.15669605E+002  0.10599610E+003
   126.9770  0.27872750E+002  0.47884458E+002  0.31748693E+003  0.15862273E+002  0.15793249E+002  0.10678575E+003
   127.5275  0.28080110E+002  0.48250950E+002  0.31983981E+003  0.15988108E+002  0.15918512E+002  0.10758427E+003
   128.0781  0.28289793E+002  0.48621679E+002  0.32221894E+003  0.16115595E+002  0.16045419E+002  0.10839180E+003
   128.6286  0.28501835E+002  0.48996710E+002  0.32462472E+003  0.16244759E+002  0.16173997E+002  0.10920845E+003
   129.1792  0.28716271E+002  0.49376110E+002  0.32705754E+003  0.16375629E+002  0.16304272E+002  0.11003439E+003
   129.7297  0.28933138E+002  0.49759948E+002  0.32951781E+003  0.16508230E+002  0.16436272E+002  0.11086974E+003
   130.2803  0.29152472E+002  0.50148293E+002  0.33200595E+003  0.16642591E+002  0.16570024E+002  0.11171465E+003
   130.8308  0.29374311E+002  0.50541217E+002  0.33452237E+003  0.16778742E+002  0.16705558E+002  0.11256926E+003
   131.3814  0.29598692E+002  0.50938792E+002  0.33706752E+003  0.16916710E+002  0.16842901E+002  0.11343374E+003
   131.9319  0.29825656E+002  0.51341092E+002  0.33964182E+003  0.17056526E+002  0.16982084E+002  0.11430822E+003
   132.4825  0.30055242E+002  0.51748192E+002  0.34224572E+003  0.17198222E+002  0.17123138E+002  0.11519286E+003
   133.0330  0.30287491E+002  0.52160170E+002  0.34487969E+003  0.17341827E+002  0.17266094E+002  0.11608783E+003
   133.5836  0.30522444E+002  0.52577104E+002  0.34754418E+003  0.17487374E+002  0.17410983E+002  0.11699328E+003
   134.1341  0.30760142E+002  0.52999073E+002  0.35023966E+003  0.17634897E+002  0.17557839E+002  0.11790938E+003
   134.6847  0.31000630E+002  0.53426160E+002  0.35296663E+003  0.17784428E+002  0.17706694E+002  0.11883630E+003
   135.2352  0.31243951E+002  0.53858449E+002  0.35572557E+003  0.17936001E+002  0.17857583E+002  0.11977420E+003
   135.7858  0.31490149E+002  0.54296023E+002  0.35851699E+003  0.18089652E+002  0.18010541E+002  0.12072327E+003
   136.3363  0.31739270E+002  0.54738971E+002  0.36134139E+003  0.18245417E+002  0.18165603E+002  0.12168368E+003
   136.8869  0.31991361E+002  0.55187380E+002  0.36419929E+003  0.18403333E+002  0.18322806E+002  0.12265560E+003
   137.4374  0.32246469E+002  0.55641341E+002  0.36709124E+003  0.18563436E+002  0.18482187E+002  0.12363924E+003
   137.9880  0.32504643E+002  0.56100947E+002  0.37001777E+003  0.18725765E+002  0.18643785E+002  0.12463477E+003
   138.5385  0.32765932E+002  0.56566292E+002  0.37297944E+003  0.18890360E+002  0.18807638E+002  0.12564239E+003
   139.0891  0.33030385E+002  0.57037472E+002  0.37597680E+003  0.19057261E+002  0.18973787E+002  0.12666229E+003
   139.6396  0.33298055E+002  0.57514586E+002  0.37901045E+003  0.19226509E+002  0.19142273E+002  0.12769469E+003
   140.1902  0.33568995E+002  0.57997734E+002  0.38208096E+003  0.19398146E+002  0.19313137E+002  0.12873977E+003
   140.7407  0.33843256E+002  0.58487018E+002  0.38518893E+003  0.19572216E+002  0.19486423E+002  0.12979776E+003
   141.2913  0.34120895E+002  0.58982544E+002  0.38833498E+003  0.19748761E+002  0.19662175E+002  0.13086886E+003
   141.8418  0.34401966E+002  0.59484418E+002  0.39151973E+003  0.19927828E+002  0.19840436E+002  0.13195329E+003
   142.3924  0.34686527E+002  0.59992751E+002  0.39474382E+003  0.20109463E+002  0.20021254E+002  0.13305128E+003
   142.9429  0.34974636E+002  0.60507652E+002  0.39800790E+003  0.20293713E+002  0.20204676E+002  0.13416305E+003
   143.4935  0.35266351E+002  0.61029237E+002  0.40131263E+003  0.20480627E+002  0.20390750E+002  0.13528884E+003
   144.0440  0.35561734E+002  0.61557623E+002  0.40465870E+003  0.20670254E+002  0.20579525E+002  0.13642888E+003
   144.5946  0.35860846E+002  0.62092928E+002  0.40804678E+003  0.20862645E+002  0.20771052E+002  0.13758341E+003
   145.1451  0.36163750E+002  0.62635275E+002  0.41147760E+003  0.21057853E+002  0.20965383E+002  0.13875268E+003
   145.6957  0.36470511E+002  0.63184788E+002  0.41495187E+003  0.21255930E+002  0.21162571E+002  0.13993695E+003
   146.2462  0.36781195E+002  0.63741594E+002  0.41847032E+003  0.21456932E+002  0.21362670E+002  0.14113646E+003
   146.7968  0.37095868E+002  0.64305824E+002  0.42203372E+003  0.21660914E+002  0.21565737E+002  0.14235149E+003
   147.3473  0.37414600E+002  0.64877611E+002  0.42564282E+003  0.21867934E+002  0.21771828E+002  0.14358231E+003
   147.8979  0.37737460E+002  0.65457090E+002  0.42929842E+003  0.22078051E+002  0.21981002E+002  0.14482919E+003
   148.4484  0.38064521E+002  0.66044402E+002  0.43300132E+003  0.22291324E+002  0.22193320E+002  0.14609240E+003
   148.9990  0.38395855E+002  0.66639689E+002  0.43675233E+003  0.22507817E+002  0.22408841E+002  0.14737225E+003
   149.5495  0.38731537E+002  0.67243095E+002  0.44055230E+003  0.22727592E+002  0.22627631E+002  0.14866901E+003
   150.1001  0.39071644E+002  0.67854772E+002  0.44440207E+003  0.22950714E+002  0.22849753E+002  0.14998300E+003
   150.6507  0.39416254E+002  0.68474870E+002  0.44830253E+003  0.23177250E+002  0.23075273E+002  0.15131452E+003
   151.2012  0.39765447E+002  0.69103546E+002  0.45225456E+003  0.23407268E+002  0.23304260E+002  0.15266387E+003
   151.7518  0.40119305E+002  0.69740960E+002  0.45625909E+003  0.23640838E+002  0.23536784E+002  0.15403140E+003
   152.3023  0.40477910E+002  0.70387276E+002  0.46031704E+003  0.23878032E+002  0.23772916E+002  0.15541741E+003
   152.8529  0.40841349E+002  0.71042659E+002  0.46442936E+003  0.24118925E+002  0.24012730E+002  0.15682225E+003
   153.4034  0.41209709E+002  0.71707283E+002  0.46859704E+003  0.24363591E+002  0.24256300E+002  0.15824627E+003
   153.9540  0.41583080E+002  0.72381322E+002  0.47282108E+003  0.24612108E+002  0.24503705E+002  0.15968980E+003
   154.5045  0.41961551E+002  0.73064956E+002  0.47710248E+003  0.24864557E+002  0.24755023E+002  0.16115322E+003
   155.0551  0.42345218E+002  0.73758369E+002  0.48144230E+003  0.25121018E+002  0.25010336E+002  0.16263688E+003
   155.6056  0.42734176E+002  0.74461749E+002  0.48584161E+003  0.25381575E+002  0.25269728E+002  0.16414117E+003
   156.1562  0.43128521E+002  0.75175289E+002  0.49030149E+003  0.25646316E+002  0.25533284E+002  0.16566648E+003
   156.7067  0.43528356E+002  0.75899187E+002  0.49482306E+003  0.25915329E+002  0.25801093E+002  0.16721318E+003
   157.2573  0.43933781E+002  0.76633645E+002  0.49940747E+003  0.26188704E+002  0.26073244E+002  0.16878170E+003
   157.8078  0.44344902E+002  0.77378871E+002  0.50405589E+003  0.26466534E+002  0.26349832E+002  0.17037243E+003
   158.3584  0.44761827E+002  0.78135078E+002  0.50876951E+003  0.26748916E+002  0.26630951E+002  0.17198581E+003
   158.9089  0.45184664E+002  0.78902484E+002  0.51354956E+003  0.27035949E+002  0.26916700E+002  0.17362227E+003
   159.4595  0.45613527E+002  0.79681312E+002  0.51839729E+003  0.27327733E+002  0.27207179E+002  0.17528225E+003
   160.0100  0.46048530E+002  0.80471791E+002  0.52331399E+003  0.27624373E+002  0.27502493E+002  0.17696620E+003
   160.5606  0.46489792E+002  0.81274156E+002  0.52830097E+003  0.27925976E+002  0.27802746E+002  0.17867459E+003
   161.1111  0.46937433E+002  0.82088648E+002  0.53335957E+003  0.28232651E+002  0.28108050E+002  0.18040790E+003
   161.6617  0.47391577E+002  0.82915515E+002  0.53849118E+003  0.28544511E+002  0.28418517E+002  0.18216662E+003
   162.2122  0.47852351E+002  0.83755009E+002  0.54369721E+003  0.28861674E+002  0.28734261E+002  0.18395124E+003
   162.7628  0.48319885E+002  0.84607391E+002  0.54897910E+003  0.29184258E+002  0.29055403E+002  0.18576227E+003
   163.3133  0.48794311E+002  0.85472927E+002  0.55433833E+003  0.29512386E+002  0.29382065E+002  0.18760026E+003
   163.8639  0.49275766E+002  0.86351891E+002  0.55977643E+003  0.29846186E+002  0.29714373E+002  0.18946572E+003
   164.4144  0.49764390E+002  0.87244565E+002  0.56529494E+003  0.30185786E+002  0.30052455E+002  0.19135923E+003
   164.9650  0.50260325E+002  0.88151237E+002  0.57089545E+003  0.30531322E+002  0.30396447E+002  0.19328133E+003
   165.5155  0.50763719E+002  0.89072202E+002  0.57657962E+003  0.30882931E+002  0.30746485E+002  0.19523262E+003
   166.0661  0.51274723E+002  0.90007765E+002  0.58234909E+003  0.31240755E+002  0.31102710E+002  0.19721369E+003
   166.6166  0.51793490E+002  0.90958238E+002  0.58820560E+003  0.31604940E+002  0.31465268E+002  0.19922515E+003
   167.1672  0.52320179E+002  0.91923941E+002  0.59415090E+003  0.31975637E+002  0.31834308E+002  0.20126762E+003
   167.7177  0.52854952E+002  0.92905205E+002  0.60018680E+003  0.32353001E+002  0.32209986E+002  0.20334176E+003
   168.2683  0.53397976E+002  0.93902367E+002  0.60631514E+003  0.32737192E+002  0.32592460E+002  0.20544822E+003
   168.8188  0.53949421E+002  0.94915775E+002  0.61253783E+003  0.33128374E+002  0.32981894E+002  0.20758768E+003
   169.3694  0.54509463E+002  0.95945787E+002  0.61885680E+003  0.33526716E+002  0.33378457E+002  0.20976084E+003
   169.9199  0.55078282E+002  0.96992769E+002  0.62527406E+003  0.33932395E+002  0.33782324E+002  0.21196840E+003
   170.4705  0.55656063E+002  0.98057101E+002  0.63179166E+003  0.34345590E+002  0.34193672E+002  0.21421111E+003
   171.0210  0.56242994E+002  0.99139169E+002  0.63841170E+003  0.34766486E+002  0.34612689E+002  0.21648972E+003
   171.5716  0.56839271E+002  0.10023937E+003  0.64513633E+003  0.35195277E+002  0.35039563E+002  0.21880500E+003
   172.1221  0.57445093E+002  0.10135812E+003  0.65196777E+003  0.35632158E+002  0.35474493E+002  0.22115774E+003
   172.6727  0.58060666E+002  0.10249584E+003  0.65890830E+003  0.36077336E+002  0.35917682E+002  0.22354877E+003
   173.2232  0.58686200E+002  0.10365297E+003  0.66596025E+003  0.36531019E+002  0.36369338E+002  0.22597891E+003
   173.7738  0.59321912E+002  0.10482994E+003  0.67312601E+003  0.36993426E+002  0.36829679E+002  0.22844905E+003
   174.3243  0.59968024E+002  0.10602723E+003  0.68040806E+003  0.37464781E+002  0.37298928E+002  0.23096005E+003
   174.8749  0.60624764E+002  0.10724530E+003  0.68780892E+003  0.37945315E+002  0.37777315E+002  0.23351284E+003
   175.4254  0.61292368E+002  0.10848464E+003  0.69533118E+003  0.38435268E+002  0.38265079E+002  0.23610835E+003
   175.9760  0.61971077E+002  0.10974576E+003  0.70297753E+003  0.38934888E+002  0.38762467E+002  0.23874754E+003
   176.5265  0.62661138E+002  0.11102917E+003  0.71075070E+003  0.39444429E+002  0.39269731E+002  0.24143141E+003
   177.0771  0.63362808E+002  0.11233541E+003  0.71865351E+003  0.39964157E+002  0.39787136E+002  0.24416098E+003
   177.6276  0.64076348E+002  0.11366502E+003  0.72668887E+003  0.40494343E+002  0.40314953E+002  0.24693729E+003
   178.1782  0.64802029E+002  0.11501858E+003  0.73485974E+003  0.41035270E+002  0.40853463E+002  0.24976144E+003
   178.7287  0.65540127E+002  0.11639666E+003  0.74316921E+003  0.41587231E+002  0.41402957E+002  0.25263452E+003
   179.2793  0.66290928E+002  0.11779986E+003  0.75162042E+003  0.42150528E+002  0.41963736E+002  0.25555770E+003
   179.8298  0.67054727E+002  0.11922882E+003  0.76021660E+003  0.42725472E+002  0.42536110E+002  0.25853214E+003
   180.3804  0.67831826E+002  0.12068415E+003  0.76896111E+003  0.43312388E+002  0.43120402E+002  0.26155907E+003
   180.9309  0.68622535E+002  0.12216654E+003  0.77785736E+003  0.43911610E+002  0.43716946E+002  0.26463973E+003
   181.4815  0.69427176E+002  0.12367665E+003  0.78690890E+003  0.44523487E+002  0.44326087E+002  0.26777542E+003
   182.0320  0.70246079E+002  0.12521519E+003  0.79611935E+003  0.45148376E+002  0.44948182E+002  0.27096747E+003
   182.5826  0.71079583E+002  0.12678289E+003  0.80549246E+003  0.45786651E+002  0.45583603E+002  0.27421724E+003
   183.1331  0.71928038E+002  0.12838049E+003  0.81503208E+003  0.46438699E+002  0.46232734E+002  0.27752616E+003
   183.6837  0.72791806E+002  0.13000877E+003  0.82474218E+003  0.47104918E+002  0.46895973E+002  0.28089569E+003
   184.2342  0.73671258E+002  0.13166852E+003  0.83462684E+003  0.47785724E+002  0.47573734E+002  0.28432732E+003
   184.7848  0.74566776E+002  0.13336057E+003  0.84469027E+003  0.48481549E+002  0.48266445E+002  0.28782261E+003
   185.3353  0.75478757E+002  0.13508578E+003  0.85493682E+003  0.49192839E+002  0.48974552E+002  0.29138318E+003
   185.8859  0.76407608E+002  0.13684503E+003  0.86537095E+003  0.49920059E+002  0.49698517E+002  0.29501067E+003
   186.4364  0.77353747E+002  0.13863922E+003  0.87599727E+003  0.50663690E+002  0.50438819E+002  0.29870679E+003
   186.9870  0.78317609E+002  0.14046930E+003  0.88682052E+003  0.51424233E+002  0.51195956E+002  0.30247332E+003
   187.5375  0.79299640E+002  0.14233624E+003  0.89784561E+003  0.52202209E+002  0.51970448E+002  0.30631208E+003
   188.0881  0.80300302E+002  0.14424106E+003  0.90907758E+003  0.52998159E+002  0.52762832E+002  0.31022497E+003
   188.6386  0.81320071E+002  0.14618479E+003  0.92052164E+003  0.53812645E+002  0.53573669E+002  0.31421393E+003
   189.1892  0.82359438E+002  0.14816852E+003  0.93218317E+003  0.54646253E+002  0.54403541E+002  0.31828100E+003
   189.7397  0.83418911E+002  0.15019337E+003  0.94406771E+003  0.55499592E+002  0.55253056E+002  0.32242827E+003
   190.2903  0.84499014E+002  0.15226049E+003  0.95618099E+003  0.56373298E+002  0.56122844E+002  0.32665791E+003
   190.8408  0.85600288E+002  0.15437109E+003  0.96852890E+003  0.57268032E+002  0.57013564E+002  0.33097216E+003
   191.3914  0.86723294E+002  0.15652641E+003  0.98111756E+003  0.58184482E+002  0.57925903E+002  0.33537337E+003
   191.9419  0.87868609E+002  0.15872774E+003  0.99395326E+003  0.59123369E+002  0.58860575E+002  0.33986396E+003
   192.4925  0.89036832E+002  0.16097641E+003  0.10070425E+004  0.60085441E+002  0.59818328E+002  0.34444643E+003
   193.0430  0.90228582E+002  0.16327383E+003  0.10203920E+004  0.61071482E+002  0.60799940E+002  0.34912339E+003
   193.5936  0.91444498E+002  0.16562142E+003  0.10340088E+004  0.62082311E+002  0.61806227E+002  0.35389758E+003
   194.1441  0.92685242E+002  0.16802067E+003  0.10478999E+004  0.63118782E+002  0.62838039E+002  0.35877180E+003
   194.6947  0.93951501E+002  0.17047315E+003  0.10620729E+004  0.64181791E+002  0.63896266E+002  0.36374902E+003
   195.2452  0.95243984E+002  0.17298047E+003  0.10765353E+004  0.65272273E+002  0.64981842E+002  0.36883230E+003
