#Raman spectra
#Laser energy   2.33 eV
#Raman shift (cm-1), Raman Spectra (XX,YY,ZZ,s+s+,s-s-,XY,YX,s+s-,s-s+)
   200.0000  0.10310163E+003  0.14980159E+003  0.28305811E+003  0.12392649E+003  0.12392563E+003  0.48739415E+001  0.48402932E+001  0.74427326E+001  0.73225948E+001
   201.1278  0.10389266E+003  0.15095339E+003  0.28522898E+003  0.12487703E+003  0.12487616E+003  0.49150549E+001  0.48811215E+001  0.75050391E+001  0.73839915E+001
   202.2556  0.10469283E+003  0.15211853E+003  0.28742493E+003  0.12583856E+003  0.12583768E+003  0.49566981E+001  0.49224760E+001  0.75681323E+001  0.74461643E+001
   203.3835  0.10550227E+003  0.15329722E+003  0.28964633E+003  0.12681124E+003  0.12681035E+003  0.49988803E+001  0.49643657E+001  0.76320253E+001  0.75091266E+001
   204.5113  0.10632115E+003  0.15448966E+003  0.29189358E+003  0.12779525E+003  0.12779435E+003  0.50416104E+001  0.50067996E+001  0.76967318E+001  0.75728917E+001
   205.6391  0.10714959E+003  0.15569608E+003  0.29416709E+003  0.12879076E+003  0.12878986E+003  0.50848978E+001  0.50497870E+001  0.77622658E+001  0.76374733E+001
   206.7669  0.10798776E+003  0.15691668E+003  0.29646727E+003  0.12979796E+003  0.12979705E+003  0.51287522E+001  0.50933375E+001  0.78286413E+001  0.77028855E+001
   207.8947  0.10883580E+003  0.15815170E+003  0.29879453E+003  0.13081703E+003  0.13081610E+003  0.51731834E+001  0.51374607E+001  0.78958728E+001  0.77691426E+001
   209.0226  0.10969387E+003  0.15940136E+003  0.30114930E+003  0.13184815E+003  0.13184722E+003  0.52182012E+001  0.51821666E+001  0.79639752E+001  0.78362592E+001
   210.1504  0.11056213E+003  0.16066590E+003  0.30353201E+003  0.13289152E+003  0.13289058E+003  0.52638160E+001  0.52274653E+001  0.80329636E+001  0.79042502E+001
   211.2782  0.11144073E+003  0.16194555E+003  0.30594312E+003  0.13394733E+003  0.13394637E+003  0.53100382E+001  0.52733672E+001  0.81028534E+001  0.79731309E+001
   212.4060  0.11232986E+003  0.16324055E+003  0.30838307E+003  0.13501577E+003  0.13501481E+003  0.53568785E+001  0.53198830E+001  0.81736605E+001  0.80429170E+001
   213.5338  0.11322966E+003  0.16455115E+003  0.31085233E+003  0.13609706E+003  0.13609609E+003  0.54043477E+001  0.53670233E+001  0.82454008E+001  0.81136244E+001
   214.6617  0.11414032E+003  0.16587760E+003  0.31335136E+003  0.13719140E+003  0.13719042E+003  0.54524571E+001  0.54147995E+001  0.83180911E+001  0.81852693E+001
   215.7895  0.11506202E+003  0.16722016E+003  0.31588065E+003  0.13829900E+003  0.13829801E+003  0.55012181E+001  0.54632227E+001  0.83917481E+001  0.82578685E+001
   216.9173  0.11599492E+003  0.16857909E+003  0.31844068E+003  0.13942007E+003  0.13941906E+003  0.55506424E+001  0.55123046E+001  0.84663890E+001  0.83314390E+001
   218.0451  0.11693921E+003  0.16995466E+003  0.32103197E+003  0.14055483E+003  0.14055382E+003  0.56007419E+001  0.55620571E+001  0.85420315E+001  0.84059982E+001
   219.1729  0.11789509E+003  0.17134714E+003  0.32365501E+003  0.14170351E+003  0.14170248E+003  0.56515288E+001  0.56124923E+001  0.86186937E+001  0.84815639E+001
   220.3008  0.11886273E+003  0.17275681E+003  0.32631033E+003  0.14286633E+003  0.14286530E+003  0.57030156E+001  0.56636225E+001  0.86963938E+001  0.85581544E+001
   221.4286  0.11984233E+003  0.17418395E+003  0.32899847E+003  0.14404353E+003  0.14404249E+003  0.57552152E+001  0.57154606E+001  0.87751509E+001  0.86357883E+001
   222.5564  0.12083410E+003  0.17562886E+003  0.33171995E+003  0.14523535E+003  0.14523430E+003  0.58081407E+001  0.57680196E+001  0.88549841E+001  0.87144846E+001
   223.6842  0.12183823E+003  0.17709182E+003  0.33447535E+003  0.14644203E+003  0.14644096E+003  0.58618053E+001  0.58213126E+001  0.89359132E+001  0.87942629E+001
   224.8120  0.12285492E+003  0.17857315E+003  0.33726522E+003  0.14766381E+003  0.14766273E+003  0.59162229E+001  0.58753534E+001  0.90179583E+001  0.88751430E+001
   225.9398  0.12388440E+003  0.18007314E+003  0.34009014E+003  0.14890095E+003  0.14889987E+003  0.59714075E+001  0.59301559E+001  0.91011402E+001  0.89571455E+001
   227.0677  0.12492687E+003  0.18159212E+003  0.34295070E+003  0.15015372E+003  0.15015262E+003  0.60273733E+001  0.59857343E+001  0.91854799E+001  0.90402911E+001
   228.1955  0.12598256E+003  0.18313041E+003  0.34584750E+003  0.15142236E+003  0.15142125E+003  0.60841353E+001  0.60421032E+001  0.92709990E+001  0.91246013E+001
   229.3233  0.12705168E+003  0.18468834E+003  0.34878117E+003  0.15270716E+003  0.15270603E+003  0.61417083E+001  0.60992777E+001  0.93577197E+001  0.92100979E+001
   230.4511  0.12813448E+003  0.18626623E+003  0.35175232E+003  0.15400838E+003  0.15400724E+003  0.62001078E+001  0.61572729E+001  0.94456645E+001  0.92968033E+001
   231.5789  0.12923117E+003  0.18786444E+003  0.35476159E+003  0.15532631E+003  0.15532516E+003  0.62593496E+001  0.62161047E+001  0.95348568E+001  0.93847404E+001
   232.7068  0.13034201E+003  0.18948332E+003  0.35780965E+003  0.15666124E+003  0.15666008E+003  0.63194499E+001  0.62757889E+001  0.96253202E+001  0.94739328E+001
   233.8346  0.13146723E+003  0.19112322E+003  0.36089716E+003  0.15801345E+003  0.15801228E+003  0.63804252E+001  0.63363422E+001  0.97170790E+001  0.95644044E+001
   234.9624  0.13260708E+003  0.19278451E+003  0.36402481E+003  0.15938326E+003  0.15938207E+003  0.64422925E+001  0.63977813E+001  0.98101581E+001  0.96561799E+001
   236.0902  0.13376183E+003  0.19446756E+003  0.36719329E+003  0.16077095E+003  0.16076976E+003  0.65050692E+001  0.64601235E+001  0.99045830E+001  0.97492844E+001
   237.2180  0.13493172E+003  0.19617275E+003  0.37040331E+003  0.16217686E+003  0.16217565E+003  0.65687730E+001  0.65233864E+001  0.10000380E+002  0.98437438E+001
   238.3459  0.13611703E+003  0.19790048E+003  0.37365562E+003  0.16360130E+003  0.16360007E+003  0.66334223E+001  0.65875883E+001  0.10097575E+002  0.99395846E+001
   239.4737  0.13731803E+003  0.19965115E+003  0.37695095E+003  0.16504458E+003  0.16504335E+003  0.66990358E+001  0.66527477E+001  0.10196197E+002  0.10036834E+002
   240.6015  0.13853500E+003  0.20142515E+003  0.38029006E+003  0.16650706E+003  0.16650582E+003  0.67656325E+001  0.67188836E+001  0.10296272E+002  0.10135519E+002
   241.7293  0.13976822E+003  0.20322292E+003  0.38367374E+003  0.16798907E+003  0.16798781E+003  0.68332322E+001  0.67860156E+001  0.10397831E+002  0.10235669E+002
   242.8571  0.14101797E+003  0.20504487E+003  0.38710278E+003  0.16949096E+003  0.16948969E+003  0.69018551E+001  0.68541636E+001  0.10500902E+002  0.10337313E+002
   243.9850  0.14228457E+003  0.20689144E+003  0.39057800E+003  0.17101308E+003  0.17101180E+003  0.69715217E+001  0.69233481E+001  0.10605515E+002  0.10440480E+002
   245.1128  0.14356831E+003  0.20876307E+003  0.39410022E+003  0.17255581E+003  0.17255451E+003  0.70422533E+001  0.69935903E+001  0.10711702E+002  0.10545202E+002
   246.2406  0.14486950E+003  0.21066023E+003  0.39767031E+003  0.17411951E+003  0.17411820E+003  0.71140715E+001  0.70649117E+001  0.10819494E+002  0.10651510E+002
   247.3684  0.14618846E+003  0.21258338E+003  0.40128912E+003  0.17570457E+003  0.17570324E+003  0.71869988E+001  0.71373344E+001  0.10928925E+002  0.10759435E+002
   248.4962  0.14752552E+003  0.21453300E+003  0.40495756E+003  0.17731138E+003  0.17731004E+003  0.72610579E+001  0.72108812E+001  0.11040026E+002  0.10869012E+002
   249.6241  0.14888101E+003  0.21650957E+003  0.40867653E+003  0.17894034E+003  0.17893898E+003  0.73362723E+001  0.72855752E+001  0.11152833E+002  0.10980274E+002
   250.7519  0.15025526E+003  0.21851359E+003  0.41244697E+003  0.18059185E+003  0.18059047E+003  0.74126661E+001  0.73614406E+001  0.11267381E+002  0.11093255E+002
   251.8797  0.15164863E+003  0.22054558E+003  0.41626983E+003  0.18226633E+003  0.18226494E+003  0.74902640E+001  0.74385017E+001  0.11383705E+002  0.11207992E+002
   253.0075  0.15306148E+003  0.22260605E+003  0.42014608E+003  0.18396422E+003  0.18396282E+003  0.75690914E+001  0.75167837E+001  0.11501844E+002  0.11324520E+002
   254.1353  0.15449416E+003  0.22469555E+003  0.42407673E+003  0.18568595E+003  0.18568453E+003  0.76491742E+001  0.75963126E+001  0.11621834E+002  0.11442879E+002
   255.2632  0.15594706E+003  0.22681462E+003  0.42806280E+003  0.18743197E+003  0.18743054E+003  0.77305392E+001  0.76771148E+001  0.11743714E+002  0.11563105E+002
   256.3910  0.15742054E+003  0.22896382E+003  0.43210533E+003  0.18920274E+003  0.18920129E+003  0.78132139E+001  0.77592177E+001  0.11867525E+002  0.11685239E+002
   257.5188  0.15891502E+003  0.23114372E+003  0.43620540E+003  0.19099873E+003  0.19099726E+003  0.78972264E+001  0.78426491E+001  0.11993308E+002  0.11809321E+002
   258.6466  0.16043087E+003  0.23335492E+003  0.44036410E+003  0.19282041E+003  0.19281893E+003  0.79826057E+001  0.79274379E+001  0.12121105E+002  0.11935393E+002
   259.7744  0.16196852E+003  0.23559802E+003  0.44458256E+003  0.19466829E+003  0.19466679E+003  0.80693816E+001  0.80136136E+001  0.12250959E+002  0.12063498E+002
   260.9023  0.16352839E+003  0.23787363E+003  0.44886192E+003  0.19654286E+003  0.19654135E+003  0.81575845E+001  0.81012065E+001  0.12382915E+002  0.12193680E+002
   262.0301  0.16511089E+003  0.24018238E+003  0.45320337E+003  0.19844465E+003  0.19844312E+003  0.82472459E+001  0.81902478E+001  0.12517018E+002  0.12325985E+002
   263.1579  0.16671649E+003  0.24252493E+003  0.45760811E+003  0.20037418E+003  0.20037263E+003  0.83383980E+001  0.82807696E+001  0.12653315E+002  0.12460457E+002
   264.2857  0.16834561E+003  0.24490193E+003  0.46207738E+003  0.20233200E+003  0.20233043E+003  0.84310740E+001  0.83728047E+001  0.12791855E+002  0.12597146E+002
   265.4135  0.16999874E+003  0.24731407E+003  0.46661244E+003  0.20431865E+003  0.20431706E+003  0.85253080E+001  0.84663871E+001  0.12932686E+002  0.12736100E+002
   266.5414  0.17167634E+003  0.24976203E+003  0.47121460E+003  0.20633472E+003  0.20633311E+003  0.86211350E+001  0.85615515E+001  0.13075860E+002  0.12877370E+002
   267.6692  0.17337890E+003  0.25224654E+003  0.47588518E+003  0.20838077E+003  0.20837915E+003  0.87185912E+001  0.86583338E+001  0.13221430E+002  0.13021007E+002
   268.7970  0.17510691E+003  0.25476833E+003  0.48062554E+003  0.21045742E+003  0.21045578E+003  0.88177135E+001  0.87567708E+001  0.13369449E+002  0.13167065E+002
   269.9248  0.17686088E+003  0.25732814E+003  0.48543709E+003  0.21256527E+003  0.21256361E+003  0.89185401E+001  0.88569003E+001  0.13519972E+002  0.13315599E+002
   271.0526  0.17864134E+003  0.25992674E+003  0.49032125E+003  0.21470496E+003  0.21470328E+003  0.90211103E+001  0.89587613E+001  0.13673056E+002  0.13466664E+002
   272.1805  0.18044883E+003  0.26256493E+003  0.49527949E+003  0.21687712E+003  0.21687542E+003  0.91254644E+001  0.90623939E+001  0.13828761E+002  0.13620320E+002
   273.3083  0.18228389E+003  0.26524350E+003  0.50031333E+003  0.21908242E+003  0.21908069E+003  0.92316440E+001  0.91678394E+001  0.13987145E+002  0.13776625E+002
   274.4361  0.18414709E+003  0.26796330E+003  0.50542429E+003  0.22132153E+003  0.22131978E+003  0.93396918E+001  0.92751403E+001  0.14148271E+002  0.13935640E+002
   275.5639  0.18603900E+003  0.27072517E+003  0.51061398E+003  0.22359515E+003  0.22359338E+003  0.94496519E+001  0.93843402E+001  0.14312204E+002  0.14097430E+002
   276.6917  0.18796022E+003  0.27352998E+003  0.51588401E+003  0.22590399E+003  0.22590220E+003  0.95615696E+001  0.94954843E+001  0.14479007E+002  0.14262059E+002
   277.8195  0.18991136E+003  0.27637863E+003  0.52123604E+003  0.22824878E+003  0.22824698E+003  0.96754916E+001  0.96086188E+001  0.14648750E+002  0.14429594E+002
   278.9474  0.19189304E+003  0.27927204E+003  0.52667180E+003  0.23063028E+003  0.23062845E+003  0.97914661E+001  0.97237916E+001  0.14821502E+002  0.14600104E+002
   280.0752  0.19390590E+003  0.28221115E+003  0.53219303E+003  0.23304925E+003  0.23304740E+003  0.99095425E+001  0.98410519E+001  0.14997334E+002  0.14773659E+002
   281.2030  0.19595061E+003  0.28519693E+003  0.53780154E+003  0.23550649E+003  0.23550462E+003  0.10029772E+002  0.99604503E+001  0.15176319E+002  0.14950334E+002
   282.3308  0.19802783E+003  0.28823037E+003  0.54349918E+003  0.23800280E+003  0.23800090E+003  0.10152207E+002  0.10082039E+002  0.15358535E+002  0.15130203E+002
   283.4586  0.20013825E+003  0.29131250E+003  0.54928783E+003  0.24053902E+003  0.24053710E+003  0.10276902E+002  0.10205872E+002  0.15544060E+002  0.15313343E+002
   284.5865  0.20228260E+003  0.29444436E+003  0.55516947E+003  0.24311600E+003  0.24311406E+003  0.10403913E+002  0.10332005E+002  0.15732974E+002  0.15499836E+002
   285.7143  0.20446160E+003  0.29762702E+003  0.56114607E+003  0.24573463E+003  0.24573266E+003  0.10533297E+002  0.10460495E+002  0.15925360E+002  0.15689763E+002
   286.8421  0.20667600E+003  0.30086160E+003  0.56721971E+003  0.24839580E+003  0.24839381E+003  0.10665114E+002  0.10591402E+002  0.16121304E+002  0.15883209E+002
   287.9699  0.20892657E+003  0.30414923E+003  0.57339249E+003  0.25110044E+003  0.25109842E+003  0.10799425E+002  0.10724785E+002  0.16320896E+002  0.16080262E+002
   289.0977  0.21121411E+003  0.30749108E+003  0.57966659E+003  0.25384950E+003  0.25384746E+003  0.10936294E+002  0.10860708E+002  0.16524225E+002  0.16281012E+002
   290.2256  0.21353943E+003  0.31088835E+003  0.58604423E+003  0.25664396E+003  0.25664189E+003  0.11075786E+002  0.10999236E+002  0.16731386E+002  0.16485553E+002
   291.3534  0.21590336E+003  0.31434226E+003  0.59252769E+003  0.25948483E+003  0.25948274E+003  0.11217968E+002  0.11140436E+002  0.16942476E+002  0.16693980E+002
   292.4812  0.21830677E+003  0.31785409E+003  0.59911935E+003  0.26237314E+003  0.26237102E+003  0.11362910E+002  0.11284376E+002  0.17157596E+002  0.16906394E+002
   293.6090  0.22075054E+003  0.32142515E+003  0.60582161E+003  0.26530995E+003  0.26530780E+003  0.11510684E+002  0.11431129E+002  0.17376849E+002  0.17122896E+002
   294.7368  0.22323558E+003  0.32505676E+003  0.61263697E+003  0.26829636E+003  0.26829418E+003  0.11661364E+002  0.11580768E+002  0.17600341E+002  0.17343592E+002
   295.8647  0.22576282E+003  0.32875031E+003  0.61956799E+003  0.27133348E+003  0.27133128E+003  0.11815026E+002  0.11733369E+002  0.17828183E+002  0.17568592E+002
   296.9925  0.22833323E+003  0.33250723E+003  0.62661729E+003  0.27442248E+003  0.27442024E+003  0.11971751E+002  0.11889011E+002  0.18060488E+002  0.17798009E+002
   298.1203  0.23094779E+003  0.33632895E+003  0.63378759E+003  0.27756453E+003  0.27756227E+003  0.12131619E+002  0.12047775E+002  0.18297375E+002  0.18031958E+002
   299.2481  0.23360752E+003  0.34021699E+003  0.64108166E+003  0.28076087E+003  0.28075857E+003  0.12294715E+002  0.12209745E+002  0.18538965E+002  0.18270561E+002
   300.3759  0.23631346E+003  0.34417290E+003  0.64850238E+003  0.28401275E+003  0.28401042E+003  0.12461128E+002  0.12375008E+002  0.18785383E+002  0.18513942E+002
   301.5038  0.23906671E+003  0.34819825E+003  0.65605270E+003  0.28732146E+003  0.28731910E+003  0.12630947E+002  0.12543654E+002  0.19036760E+002  0.18762229E+002
   302.6316  0.24186835E+003  0.35229469E+003  0.66373564E+003  0.29068835E+003  0.29068595E+003  0.12804266E+002  0.12715777E+002  0.19293228E+002  0.19015556E+002
   303.7594  0.24471954E+003  0.35646391E+003  0.67155433E+003  0.29411477E+003  0.29411234E+003  0.12981182E+002  0.12891471E+002  0.19554928E+002  0.19274060E+002
   304.8872  0.24762145E+003  0.36070763E+003  0.67951199E+003  0.29760214E+003  0.29759968E+003  0.13161795E+002  0.13070837E+002  0.19822003E+002  0.19537884E+002
   306.0150  0.25057528E+003  0.36502765E+003  0.68761194E+003  0.30115192E+003  0.30114942E+003  0.13346209E+002  0.13253978E+002  0.20094602E+002  0.19807175E+002
   307.1429  0.25358230E+003  0.36942580E+003  0.69585758E+003  0.30476560E+003  0.30476307E+003  0.13534531E+002  0.13441000E+002  0.20372877E+002  0.20082085E+002
   308.2707  0.25664377E+003  0.37390399E+003  0.70425243E+003  0.30844473E+003  0.30844216E+003  0.13726873E+002  0.13632014E+002  0.20656989E+002  0.20362772E+002
   309.3985  0.25976103E+003  0.37846417E+003  0.71280012E+003  0.31219089E+003  0.31218830E+003  0.13923350E+002  0.13827134E+002  0.20947101E+002  0.20649399E+002
   310.5263  0.26293544E+003  0.38310836E+003  0.72150437E+003  0.31600574E+003  0.31600310E+003  0.14124081E+002  0.14026480E+002  0.21243386E+002  0.20942136E+002
   311.6541  0.26616840E+003  0.38783863E+003  0.73036903E+003  0.31989095E+003  0.31988827E+003  0.14329190E+002  0.14230173E+002  0.21546018E+002  0.21241158E+002
   312.7820  0.26946137E+003  0.39265713E+003  0.73939806E+003  0.32384827E+003  0.32384555E+003  0.14538806E+002  0.14438342E+002  0.21855182E+002  0.21546646E+002
   313.9098  0.27281583E+003  0.39756607E+003  0.74859557E+003  0.32787949E+003  0.32787673E+003  0.14753060E+002  0.14651118E+002  0.22171067E+002  0.21858789E+002
   315.0376  0.27623333E+003  0.40256773E+003  0.75796576E+003  0.33198646E+003  0.33198367E+003  0.14972093E+002  0.14868639E+002  0.22493871E+002  0.22177782E+002
   316.1654  0.27971545E+003  0.40766445E+003  0.76751298E+003  0.33617111E+003  0.33616827E+003  0.15196046E+002  0.15091047E+002  0.22823796E+002  0.22503826E+002
   317.2932  0.28326385E+003  0.41285868E+003  0.77724173E+003  0.34043539E+003  0.34043251E+003  0.15425068E+002  0.15318489E+002  0.23161055E+002  0.22837133E+002
   318.4211  0.28688021E+003  0.41815290E+003  0.78715663E+003  0.34478134E+003  0.34477842E+003  0.15659313E+002  0.15551119E+002  0.23505867E+002  0.23177920E+002
   319.5489  0.29056627E+003  0.42354972E+003  0.79726246E+003  0.34921106E+003  0.34920809E+003  0.15898943E+002  0.15789095E+002  0.23858460E+002  0.23526413E+002
   320.6767  0.29432385E+003  0.42905179E+003  0.80756415E+003  0.35372672E+003  0.35372371E+003  0.16144122E+002  0.16032584E+002  0.24219071E+002  0.23882847E+002
   321.8045  0.29815479E+003  0.43466189E+003  0.81806681E+003  0.35833056E+003  0.35832750E+003  0.16395025E+002  0.16281757E+002  0.24587945E+002  0.24247464E+002
   322.9323  0.30206104E+003  0.44038285E+003  0.82877569E+003  0.36302488E+003  0.36302178E+003  0.16651831E+002  0.16536791E+002  0.24965337E+002  0.24620520E+002
   324.0602  0.30604457E+003  0.44621763E+003  0.83969623E+003  0.36781208E+003  0.36780893E+003  0.16914726E+002  0.16797874E+002  0.25351513E+002  0.25002275E+002
   325.1880  0.31010743E+003  0.45216926E+003  0.85083404E+003  0.37269462E+003  0.37269142E+003  0.17183905E+002  0.17065198E+002  0.25746748E+002  0.25393005E+002
   326.3158  0.31425175E+003  0.45824090E+003  0.86219492E+003  0.37767506E+003  0.37767180E+003  0.17459570E+002  0.17338963E+002  0.26151328E+002  0.25792992E+002
   327.4436  0.31847972E+003  0.46443579E+003  0.87378487E+003  0.38275602E+003  0.38275271E+003  0.17741933E+002  0.17619379E+002  0.26565551E+002  0.26202533E+002
   328.5714  0.32279361E+003  0.47075729E+003  0.88561010E+003  0.38794023E+003  0.38793688E+003  0.18031210E+002  0.17906664E+002  0.26989728E+002  0.26621936E+002
   329.6992  0.32719575E+003  0.47720889E+003  0.89767700E+003  0.39323052E+003  0.39322710E+003  0.18327632E+002  0.18201044E+002  0.27424180E+002  0.27051520E+002
   330.8271  0.33168858E+003  0.48379419E+003  0.90999222E+003  0.39862979E+003  0.39862632E+003  0.18631436E+002  0.18502754E+002  0.27869244E+002  0.27491618E+002
   331.9549  0.33627461E+003  0.49051691E+003  0.92256260E+003  0.40414105E+003  0.40413753E+003  0.18942868E+002  0.18812042E+002  0.28325268E+002  0.27942577E+002
   333.0827  0.34095643E+003  0.49738090E+003  0.93539526E+003  0.40976744E+003  0.40976386E+003  0.19262188E+002  0.19129163E+002  0.28792618E+002  0.28404760E+002
   334.2105  0.34573672E+003  0.50439017E+003  0.94849754E+003  0.41551218E+003  0.41550854E+003  0.19589665E+002  0.19454385E+002  0.29271672E+002  0.28878542E+002
   335.3383  0.35061827E+003  0.51154883E+003  0.96187704E+003  0.42137862E+003  0.42137491E+003  0.19925579E+002  0.19787988E+002  0.29762827E+002  0.29364317E+002
   336.4662  0.35560396E+003  0.51886119E+003  0.97554164E+003  0.42737021E+003  0.42736644E+003  0.20270225E+002  0.20130262E+002  0.30266494E+002  0.29862493E+002
   337.5940  0.36069678E+003  0.52633167E+003  0.98949950E+003  0.43349055E+003  0.43348671E+003  0.20623908E+002  0.20481512E+002  0.30783104E+002  0.30373499E+002
   338.7218  0.36589981E+003  0.53396488E+003  0.10037591E+004  0.43974336E+003  0.43973945E+003  0.20986949E+002  0.20842055E+002  0.31313107E+002  0.30897780E+002
   339.8496  0.37121626E+003  0.54176558E+003  0.10183291E+004  0.44613248E+003  0.44612850E+003  0.21359681E+002  0.21212224E+002  0.31856971E+002  0.31435801E+002
   340.9774  0.37664945E+003  0.54973873E+003  0.10332187E+004  0.45266191E+003  0.45265786E+003  0.21742455E+002  0.21592366E+002  0.32415186E+002  0.31988050E+002
   342.1053  0.38220283E+003  0.55788944E+003  0.10484373E+004  0.45933579E+003  0.45933167E+003  0.22135636E+002  0.21982845E+002  0.32988265E+002  0.32555034E+002
   343.2331  0.38787997E+003  0.56622305E+003  0.10639945E+004  0.46615842E+003  0.46615422E+003  0.22539606E+002  0.22384040E+002  0.33576742E+002  0.33137285E+002
   344.3609  0.39368457E+003  0.57474508E+003  0.10799007E+004  0.47313426E+003  0.47312998E+003  0.22954768E+002  0.22796350E+002  0.34181177E+002  0.33735358E+002
   345.4887  0.39962049E+003  0.58346127E+003  0.10961661E+004  0.48026792E+003  0.48026357E+003  0.23381540E+002  0.23220192E+002  0.34802156E+002  0.34349836E+002
   346.6165  0.40569170E+003  0.59237756E+003  0.11128019E+004  0.48756423E+003  0.48755979E+003  0.23820364E+002  0.23656003E+002  0.35440294E+002  0.34981327E+002
   347.7444  0.41190237E+003  0.60150016E+003  0.11298193E+004  0.49502815E+003  0.49502362E+003  0.24271701E+002  0.24104243E+002  0.36096232E+002  0.35630470E+002
   348.8722  0.41825679E+003  0.61083549E+003  0.11472300E+004  0.50266487E+003  0.50266026E+003  0.24736037E+002  0.24565394E+002  0.36770646E+002  0.36297934E+002
   350.0000  0.42475944E+003  0.62039023E+003  0.11650463E+004  0.51047977E+003  0.51047507E+003  0.25213880E+002  0.25039961E+002  0.37464244E+002  0.36984422E+002
   351.1278  0.43141497E+003  0.63017135E+003  0.11832808E+004  0.51847846E+003  0.51847366E+003  0.25705767E+002  0.25528476E+002  0.38177769E+002  0.37690671E+002
   352.2556  0.43822820E+003  0.64018607E+003  0.12019469E+004  0.52666673E+003  0.52666184E+003  0.26212263E+002  0.26031501E+002  0.38912005E+002  0.38417457E+002
   353.3835  0.44520418E+003  0.65044192E+003  0.12210581E+004  0.53505066E+003  0.53504566E+003  0.26733962E+002  0.26549627E+002  0.39667776E+002  0.39165597E+002
   354.5113  0.45234813E+003  0.66094676E+003  0.12406289E+004  0.54363652E+003  0.54363142E+003  0.27271493E+002  0.27083476E+002  0.40445955E+002  0.39935955E+002
   355.6391  0.45966549E+003  0.67170875E+003  0.12606740E+004  0.55243088E+003  0.55242567E+003  0.27825520E+002  0.27633710E+002  0.41247466E+002  0.40729443E+002
   356.7669  0.46716193E+003  0.68273643E+003  0.12812089E+004  0.56144057E+003  0.56143524E+003  0.28396749E+002  0.28201028E+002  0.42073294E+002  0.41547032E+002
   357.8947  0.47484337E+003  0.69403870E+003  0.13022497E+004  0.57067268E+003  0.57066724E+003  0.28985933E+002  0.28786176E+002  0.42924496E+002  0.42389761E+002
   359.0226  0.48271596E+003  0.70562490E+003  0.13238133E+004  0.58013464E+003  0.58012908E+003  0.29593880E+002  0.29389956E+002  0.43802220E+002  0.43258752E+002
   360.1504  0.49078614E+003  0.71750483E+003  0.13459172E+004  0.58983419E+003  0.58982849E+003  0.30221466E+002  0.30013234E+002  0.44707739E+002  0.44155240E+002
   361.2782  0.49906064E+003  0.72968885E+003  0.13685797E+004  0.59977941E+003  0.59977357E+003  0.30869663E+002  0.30656967E+002  0.45642511E+002  0.45080621E+002
   362.4060  0.50754654E+003  0.74218804E+003  0.13918201E+004  0.60997877E+003  0.60997278E+003  0.31539580E+002  0.31322246E+002  0.46608302E+002  0.46036557E+002
   363.5338  0.51625133E+003  0.75501455E+003  0.14156586E+004  0.62044117E+003  0.62043501E+003  0.32232569E+002  0.32010386E+002  0.47607462E+002  0.47025203E+002
   364.6617  0.52518309E+003  0.76818238E+003  0.14401170E+004  0.63117604E+003  0.63116969E+003  0.32950464E+002  0.32723153E+002  0.48643595E+002  0.48049759E+002
   365.7895  0.53435092E+003  0.78170954E+003  0.14652194E+004  0.64219365E+003  0.64218706E+003  0.33696236E+002  0.33463367E+002  0.49723374E+002  0.49115974E+002
   366.9173  0.54376614E+003  0.79562416E+003  0.14909948E+004  0.65350575E+003  0.65349883E+003  0.34475845E+002  0.34236607E+002  0.50861745E+002  0.50236433E+002
   368.0451  0.55344466E+003  0.80997625E+003  0.15174823E+004  0.66512694E+003  0.66511948E+003  0.35301832E+002  0.35054522E+002  0.52091979E+002  0.51438861E+002
   369.1729  0.56339174E+003  0.82476046E+003  0.15446984E+004  0.67706607E+003  0.67705792E+003  0.36169801E+002  0.35913162E+002  0.53399588E+002  0.52711583E+002
   370.3008  0.57355890E+003  0.83969690E+003  0.15725454E+004  0.68930170E+003  0.68929362E+003  0.36991707E+002  0.36731517E+002  0.54534866E+002  0.53848838E+002
   371.4286  0.58399115E+003  0.85497922E+003  0.16011250E+004  0.70186590E+003  0.70185810E+003  0.37823576E+002  0.37561328E+002  0.55652604E+002  0.54978679E+002
   372.5564  0.59472825E+003  0.87077262E+003  0.16305282E+004  0.71478810E+003  0.71478031E+003  0.38712713E+002  0.38446320E+002  0.56882788E+002  0.56208709E+002
   373.6842  0.60577313E+003  0.88705374E+003  0.16607675E+004  0.72807720E+003  0.72806927E+003  0.39648986E+002  0.39377306E+002  0.58193634E+002  0.57513057E+002
   374.8120  0.61713240E+003  0.90381589E+003  0.16918638E+004  0.74174463E+003  0.74173650E+003  0.40627323E+002  0.40349787E+002  0.59567078E+002  0.58877193E+002
   375.9398  0.62881605E+003  0.92106775E+003  0.17238452E+004  0.75580428E+003  0.75579588E+003  0.41647370E+002  0.41363634E+002  0.60997641E+002  0.60296996E+002
   377.0677  0.64083568E+003  0.93882429E+003  0.17567440E+004  0.77027158E+003  0.77026288E+003  0.42710788E+002  0.42420611E+002  0.62484604E+002  0.61772302E+002
   378.1955  0.65320391E+003  0.95710341E+003  0.17905946E+004  0.78516331E+003  0.78515425E+003  0.43820367E+002  0.43523570E+002  0.64029156E+002  0.63304542E+002
   379.3233  0.66593417E+003  0.97592489E+003  0.18254337E+004  0.80049771E+003  0.80048824E+003  0.44979867E+002  0.44676328E+002  0.65633385E+002  0.64895925E+002
   380.4511  0.67904062E+003  0.99530991E+003  0.18612999E+004  0.81629478E+003  0.81628481E+003  0.46194212E+002  0.45883878E+002  0.67299904E+002  0.66549118E+002
   381.5789  0.69253816E+003  0.10152809E+004  0.18982339E+004  0.83257687E+003  0.83256631E+003  0.47469984E+002  0.47152903E+002  0.69031687E+002  0.68267126E+002
   382.7068  0.70644250E+003  0.10358618E+004  0.19362783E+004  0.84936972E+003  0.84935843E+003  0.48816376E+002  0.48492752E+002  0.70832013E+002  0.70053238E+002
   383.8346  0.72077012E+003  0.10570775E+004  0.19754782E+004  0.86670432E+003  0.86669208E+003  0.50246992E+002  0.49917290E+002  0.72704444E+002  0.71911017E+002
   384.9624  0.73553838E+003  0.10789544E+004  0.20158806E+004  0.88462056E+003  0.88460704E+003  0.51783394E+002  0.51448534E+002  0.74652820E+002  0.73844298E+002
   386.0902  0.75076554E+003  0.11015205E+004  0.20575353E+004  0.90317491E+003  0.90315958E+003  0.53462600E+002  0.53124339E+002  0.76681272E+002  0.75857203E+002
   387.2180  0.76647082E+003  0.11248051E+004  0.21004946E+004  0.92245786E+003  0.92243977E+003  0.55354205E+002  0.55015951E+002  0.78794243E+002  0.77954163E+002
   388.3459  0.78267447E+003  0.11488391E+004  0.21448135E+004  0.94263759E+003  0.94261492E+003  0.57603358E+002  0.57272066E+002  0.80996518E+002  0.80139944E+002
   389.4737  0.79939781E+003  0.11736553E+004  0.21905499E+004  0.96408054E+003  0.96404938E+003  0.60549388E+002  0.60240443E+002  0.83293279E+002  0.82419699E+002
   390.6015  0.81666337E+003  0.11992881E+004  0.22377650E+004  0.98769357E+003  0.98764468E+003  0.65062717E+002  0.64813307E+002  0.85690211E+002  0.84799063E+002
   391.7293  0.83449491E+003  0.12257742E+004  0.22865231E+004  0.10153970E+004  0.10153096E+004  0.73010550E+002  0.72904770E+002  0.88193657E+002  0.87284283E+002
   392.8571  0.85291736E+003  0.12531519E+004  0.23368924E+004  0.10441902E+004  0.10440620E+004  0.81413246E+002  0.81459970E+002  0.90809217E+002  0.89881067E+002
   393.9850  0.87195671E+003  0.12814611E+004  0.23889443E+004  0.10610593E+004  0.10609673E+004  0.77429245E+002  0.77313638E+002  0.93540573E+002  0.92593611E+002
   395.1128  0.89164130E+003  0.13107457E+004  0.24427548E+004  0.10781013E+004  0.10780492E+004  0.72943298E+002  0.72649796E+002  0.96397970E+002  0.95431647E+002
   396.2406  0.91200077E+003  0.13410515E+004  0.24984040E+004  0.10995043E+004  0.10994705E+004  0.72050373E+002  0.71666399E+002  0.99390336E+002  0.98403913E+002
   397.3684  0.93306630E+003  0.13724268E+004  0.25559767E+004  0.11233830E+004  0.11233575E+004  0.72863243E+002  0.72428469E+002  0.10252577E+003  0.10151857E+003
   398.4962  0.95487093E+003  0.14049229E+004  0.26155625E+004  0.11488302E+004  0.11488088E+004  0.74456284E+002  0.73986844E+002  0.10581331E+003  0.10478466E+003
   399.6241  0.97744966E+003  0.14385942E+004  0.26772564E+004  0.11755220E+004  0.11755029E+004  0.76476555E+002  0.75979454E+002  0.10926290E+003  0.10821212E+003
   400.7519  0.10008396E+004  0.14734986E+004  0.27411590E+004  0.12033499E+004  0.12033319E+004  0.78781154E+002  0.78259541E+002  0.11288537E+003  0.11181178E+003
   401.8797  0.10250802E+004  0.15096975E+004  0.28073770E+004  0.12322898E+004  0.12322725E+004  0.81308605E+002  0.80763799E+002  0.11669252E+003  0.11559540E+003
   403.0075  0.10502133E+004  0.15472565E+004  0.28760237E+004  0.12623557E+004  0.12623387E+004  0.84032612E+002  0.83464972E+002  0.12069717E+003  0.11957578E+003
   404.1353  0.10762832E+004  0.15862450E+004  0.29472191E+004  0.12935810E+004  0.12935641E+004  0.86943846E+002  0.86353161E+002  0.12491331E+003  0.12376689E+003
   405.2632  0.11033372E+004  0.16267375E+004  0.30210911E+004  0.13260107E+004  0.13259937E+004  0.90042073E+002  0.89427769E+002  0.12935617E+003  0.12818392E+003
   406.3910  0.11314256E+004  0.16688131E+004  0.30977756E+004  0.13596981E+004  0.13596809E+004  0.93332525E+002  0.92693765E+002  0.13404241E+003  0.13284351E+003
   407.5188  0.11606019E+004  0.17125564E+004  0.31774172E+004  0.13947028E+004  0.13946853E+004  0.96824115E+002  0.96159857E+002  0.13899023E+003  0.13776383E+003
   408.6466  0.11909231E+004  0.17580578E+004  0.32601698E+004  0.14310902E+004  0.14310723E+004  0.10052857E+003  0.99837592E+002  0.14421960E+003  0.14296482E+003
   409.7744  0.12224499E+004  0.18054140E+004  0.33461977E+004  0.14689312E+004  0.14689129E+004  0.10446000E+003  0.10374092E+003  0.14975242E+003  0.14846835E+003
   410.9023  0.12552475E+004  0.18547286E+004  0.34356759E+004  0.15083022E+004  0.15082834E+004  0.10863476E+003  0.10788603E+003  0.15561278E+003  0.15429847E+003
   412.0301  0.12893851E+004  0.19061126E+004  0.35287916E+004  0.15492855E+004  0.15492661E+004  0.11307141E+003  0.11229133E+003  0.16182722E+003  0.16048170E+003
   413.1579  0.13249370E+004  0.19596853E+004  0.36257444E+004  0.15919693E+004  0.15919492E+004  0.11779086E+003  0.11697755E+003  0.16842503E+003  0.16704730E+003
   414.2857  0.13619826E+004  0.20155748E+004  0.37267483E+004  0.16364482E+004  0.16364274E+004  0.12281651E+003  0.12196792E+003  0.17543862E+003  0.17402763E+003
   415.4135  0.14006070E+004  0.20739188E+004  0.38320321E+004  0.16828239E+004  0.16828024E+004  0.12817453E+003  0.12728841E+003  0.18290390E+003  0.18145859E+003
   416.5414  0.14409015E+004  0.21348660E+004  0.39418410E+004  0.17312056E+004  0.17311833E+004  0.13389416E+003  0.13296804E+003  0.19086077E+003  0.18938004E+003
   417.6692  0.14829642E+004  0.21985764E+004  0.40564381E+004  0.17817106E+004  0.17816873E+004  0.14000808E+003  0.13903926E+003  0.19935363E+003  0.19783635E+003
   418.7970  0.15269003E+004  0.22652232E+004  0.41761059E+004  0.18344649E+004  0.18344407E+004  0.14655289E+003  0.14553841E+003  0.20843208E+003  0.20687709E+003
   419.9248  0.15728233E+004  0.23349935E+004  0.43011480E+004  0.18896043E+004  0.18895791E+004  0.15356963E+003  0.15250624E+003  0.21815156E+003  0.21655769E+003
   421.0526  0.16208554E+004  0.24080903E+004  0.44318912E+004  0.19472752E+004  0.19472489E+004  0.16110444E+003  0.15998856E+003  0.22857430E+003  0.22694035E+003
   422.1805  0.16711283E+004  0.24847337E+004  0.45686874E+004  0.20076352E+004  0.20076077E+004  0.16920929E+003  0.16803697E+003  0.23977029E+003  0.23809505E+003
   423.3083  0.17237842E+004  0.25651632E+004  0.47119161E+004  0.20708548E+004  0.20708261E+004  0.17794289E+003  0.17670979E+003  0.25181849E+003  0.25010072E+003
   424.4361  0.17789771E+004  0.26496395E+004  0.48619869E+004  0.21371183E+004  0.21370882E+004  0.18737176E+003  0.18607307E+003  0.26480822E+003  0.26304671E+003
   425.5639  0.18368735E+004  0.27384472E+004  0.50193428E+004  0.22066252E+004  0.22065935E+004  0.19757149E+003  0.19620186E+003  0.27884091E+003  0.27703443E+003
   426.6917  0.18976540E+004  0.28318975E+004  0.51844632E+004  0.22795916E+004  0.22795584E+004  0.20862826E+003  0.20718175E+003  0.29403204E+003  0.29217942E+003
   427.8195  0.19615147E+004  0.29303313E+004  0.53578673E+004  0.23562525E+004  0.23562175E+004  0.22064066E+003  0.21911063E+003  0.31051363E+003  0.30861371E+003
   428.9474  0.20286690E+004  0.30341234E+004  0.55401188E+004  0.24368631E+004  0.24368262E+004  0.23372187E+003  0.23210091E+003  0.32843711E+003  0.32648880E+003
   430.0752  0.20993493E+004  0.31436864E+004  0.57318300E+004  0.25217015E+004  0.25216626E+004  0.24800239E+003  0.24628217E+003  0.34797690E+003  0.34597919E+003
   431.2030  0.21738089E+004  0.32594757E+004  0.59336672E+004  0.26110710E+004  0.26110298E+004  0.26363323E+003  0.26180438E+003  0.36933468E+003  0.36728672E+003
   432.3308  0.22523250E+004  0.33819960E+004  0.61463564E+004  0.27053030E+004  0.27052593E+004  0.28078997E+003  0.27884189E+003  0.39274477E+003  0.39064583E+003
   433.4586  0.23352010E+004  0.35118079E+004  0.63706900E+004  0.28047603E+004  0.28047138E+004  0.29967766E+003  0.29759833E+003  0.41848059E+003  0.41633020E+003
   434.5865  0.24227699E+004  0.36495362E+004  0.66075340E+004  0.29098407E+004  0.29097913E+004  0.32053698E+003  0.31831271E+003  0.44686287E+003  0.44466082E+003
   435.7143  0.25153977E+004  0.37958801E+004  0.68578365E+004  0.30209818E+004  0.30209291E+004  0.34365194E+003  0.34126705E+003  0.47826974E+003  0.47601622E+003
   436.8421  0.26134878E+004  0.39516255E+004  0.71226372E+004  0.31386652E+004  0.31386088E+004  0.36935952E+003  0.36679600E+003  0.51314961E+003  0.51084528E+003
   437.9699  0.27174860E+004  0.41176590E+004  0.74030784E+004  0.32634228E+004  0.32633623E+004  0.39806204E+003  0.39529909E+003  0.55203744E+003  0.54968360E+003
   439.0977  0.28278860E+004  0.42949868E+004  0.77004171E+004  0.33958435E+004  0.33957785E+004  0.43024292E+003  0.42725636E+003  0.59557561E+003  0.59317437E+003
   440.2256  0.29452360E+004  0.44847563E+004  0.80160396E+004  0.35365809E+004  0.35365108E+004  0.46648709E+003  0.46324868E+003  0.64454091E+003  0.64209542E+003
   441.3534  0.30701472E+004  0.46882850E+004  0.83514774E+004  0.36863628E+004  0.36862869E+004  0.50750766E+003  0.50398421E+003  0.69987979E+003  0.69739455E+003
   442.4812  0.32033028E+004  0.49070954E+004  0.87084261E+004  0.38460021E+004  0.38459197E+004  0.55418111E+003  0.55033335E+003  0.76275483E+003  0.76023610E+003
   443.6090  0.33454699E+004  0.51429613E+004  0.90887672E+004  0.40164103E+004  0.40163205E+004  0.60759429E+003  0.60337537E+003  0.83460689E+003  0.83206318E+003
   444.7368  0.34975133E+004  0.53979676E+004  0.94945932E+004  0.41986141E+004  0.41985157E+004  0.66910791E+003  0.66446153E+003  0.91723892E+003  0.91468174E+003
   445.8647  0.36604128E+004  0.56745899E+004  0.99282366E+004  0.43937747E+004  0.43936664E+004  0.74044358E+003  0.73530149E+003  0.10129310E+004  0.10103757E+004
   446.9925  0.38352854E+004  0.59758009E+004  0.10392304E+005  0.46032135E+004  0.46030937E+004  0.82380481E+003  0.81808341E+003  0.11246000E+004  0.11220673E+004
   448.1203  0.40234127E+004  0.63052179E+004  0.10889718E+005  0.48284435E+004  0.48283103E+004  0.92204797E+003  0.91564384E+003  0.12560256E+004  0.12535429E+004
   449.2481  0.42262772E+004  0.66673088E+004  0.11423761E+005  0.50712108E+004  0.50710616E+004  0.10389283E+004  0.10317119E+004  0.14121748E+004  0.14097790E+004
   450.3759  0.44456111E+004  0.70676878E+004  0.11998135E+005  0.53335489E+004  0.53333806E+004  0.11794608E+004  0.11712678E+004  0.15996785E+004  0.15974194E+004
   451.5038  0.46834625E+004  0.75135500E+004  0.12617027E+005  0.56178538E+004  0.56176623E+004  0.13504618E+004  0.13410803E+004  0.18275466E+004  0.18254918E+004
   452.6316  0.49422894E+004  0.80143288E+004  0.13285192E+005  0.59269887E+004  0.59267686E+004  0.15613809E+004  0.15505334E+004  0.21082663E+004  0.21065088E+004
   453.7594  0.52250982E+004  0.85827189E+004  0.14008051E+005  0.62644374E+004  0.62641817E+004  0.18256171E+004  0.18129331E+004  0.24595394E+004  0.24582087E+004
   454.8872  0.55356552E+004  0.92363273E+004  0.14791816E+005  0.66345380E+004  0.66342370E+004  0.21626651E+004  0.21476384E+004  0.29071158E+004  0.29063952E+004
   456.0150  0.58788253E+004  0.10000438E+005  0.15643646E+005  0.70428544E+004  0.70424945E+004  0.26017456E+004  0.25836671E+004  0.34895863E+004  0.34897409E+004
   457.1429  0.62611445E+004  0.10912853E+005  0.16571856E+005  0.74968022E+004  0.74963639E+004  0.31882074E+004  0.31660525E+004  0.42668339E+004  0.42682574E+004
   458.2707  0.66918433E+004  0.12032802E+005  0.17586202E+005  0.80067635E+004  0.80062175E+004  0.39953748E+004  0.39676093E+004  0.53356765E+004  0.53389720E+004
   459.3985  0.71848033E+004  0.13458335E+005  0.18698300E+005  0.85882117E+004  0.85875123E+004  0.51477598E+004  0.51119840E+004  0.68605147E+004  0.68666436E+004
   460.5263  0.77625863E+004  0.15362680E+005  0.19922314E+005  0.92660807E+004  0.92651524E+004  0.68696993E+004  0.68219540E+004  0.91375566E+004  0.91481294E+004
   461.6541  0.84654759E+004  0.18076614E+005  0.21276222E+005  0.10084555E+005  0.10083265E+005  0.95957009E+004  0.95290064E+004  0.12740544E+005  0.12758433E+005
   462.7820  0.93738286E+004  0.22293297E+005  0.22784551E+005  0.11131255E+005  0.11129348E+005  0.14244958E+005  0.14145945E+005  0.18883333E+005  0.18914093E+005
   463.9098  0.10669094E+005  0.29629234E+005  0.24485220E+005  0.12603230E+005  0.12600164E+005  0.22973246E+005  0.22813560E+005  0.30413127E+005  0.30468612E+005
   465.0376  0.12807835E+005  0.44226513E+005  0.26448258E+005  0.14995136E+005  0.14989635E+005  0.41321663E+005  0.41034430E+005  0.54648694E+005  0.54756975E+005
   466.1654  0.16813740E+005  0.75442220E+005  0.28806940E+005  0.19415043E+005  0.19404168E+005  0.81861537E+005  0.81292495E+005  0.10818250E+006  0.10840828E+006
   467.2932  0.21648173E+005  0.11360823E+006  0.31485831E+005  0.24742122E+005  0.24724688E+005  0.13200054E+006  0.13108295E+006  0.17425199E+006  0.17462109E+006
   468.4211  0.19743940E+005  0.88853446E+005  0.33738328E+005  0.22795655E+005  0.22782883E+005  0.97270521E+005  0.96594340E+005  0.12830938E+006  0.12857433E+006
   469.5489  0.16935337E+005  0.54816709E+005  0.36217892E+005  0.19885029E+005  0.19878553E+005  0.49188304E+005  0.48846377E+005  0.64949161E+005  0.65073985E+005
   470.6767  0.16308434E+005  0.39775669E+005  0.39303530E+005  0.19350826E+005  0.19347311E+005  0.26509234E+005  0.26324968E+005  0.35081096E+005  0.35139071E+005
   471.8045  0.16826457E+005  0.33960142E+005  0.42960083E+005  0.20075336E+005  0.20073191E+005  0.16011295E+005  0.15900010E+005  0.21261715E+005  0.21287662E+005
   472.9323  0.17954516E+005  0.32172903E+005  0.47222641E+005  0.21484273E+005  0.21482834E+005  0.10579222E+005  0.10505700E+005  0.14118501E+005  0.14126734E+005
   474.0602  0.19516168E+005  0.32450849E+005  0.52187378E+005  0.23392054E+005  0.23391018E+005  0.74670315E+004  0.74151477E+004  0.10034622E+005  0.10031502E+005
   475.1880  0.21475455E+005  0.34032462E+005  0.57996858E+005  0.25766470E+005  0.25765681E+005  0.55360183E+004  0.54975609E+004  0.75104034E+004  0.74989411E+004
   476.3158  0.23861768E+005  0.36632233E+005  0.64843422E+005  0.28647937E+005  0.28647308E+005  0.42617357E+004  0.42321399E+004  0.58555141E+004  0.58371161E+004
   477.4436  0.26747534E+005  0.40187785E+005  0.72982933E+005  0.32126103E+005  0.32125582E+005  0.33792113E+004  0.33557543E+004  0.47217067E+004  0.46968931E+004
   478.5714  0.30245958E+005  0.44769998E+005  0.82758034E+005  0.36338477E+005  0.36338028E+005  0.27439673E+004  0.27249307E+004  0.39198190E+004  0.38885298E+004
   479.6992  0.34519479E+005  0.50557694E+005  0.94634152E+005  0.41481174E+005  0.41480775E+005  0.22721644E+004  0.22564131E+004  0.33410448E+004  0.33027570E+004
   480.8271  0.39797818E+005  0.57845849E+005  0.10925518E+006  0.47830888E+005  0.47830520E+005  0.19125961E+004  0.18993513E+004  0.29202344E+004  0.28739717E+004
   481.9549  0.46408794E+005  0.67080680E+005  0.12753138E+006  0.55782077E+005  0.55781727E+005  0.16326329E+004  0.16213428E+004  0.26176927E+004  0.25619532E+004
   483.0827  0.54829594E+005  0.78927946E+005  0.15078224E+006  0.65908677E+005  0.65908332E+005  0.14107404E+004  0.14010037E+004  0.24098404E+004  0.23424346E+004
   484.2105  0.65773684E+005  0.94394053E+005  0.18097690E+006  0.79068642E+005  0.79068288E+005  0.12322981E+004  0.12238160E+004  0.22845783E+004  0.22023420E+004
   485.3383  0.80343506E+005  0.11504187E+006  0.22115541E+006  0.96587550E+005  0.96587174E+005  0.10871714E+004  0.10797172E+004  0.22396226E+004  0.21379231E+004
   486.4662  0.10031127E+006  0.14338953E+006  0.27620293E+006  0.12059622E+006  0.12059580E+006  0.96827267E+003  0.96167131E+003  0.22834272E+004  0.21553013E+004
   487.5940  0.12866448E+006  0.18368640E+006  0.35435340E+006  0.15468661E+006  0.15468613E+006  0.87072883E+003  0.86484363E+003  0.24395626E+004  0.22741457E+004
   488.7218  0.17073755E+006  0.24352352E+006  0.47030859E+006  0.20527238E+006  0.20527179E+006  0.79149455E+003  0.78621837E+003  0.27575619E+004  0.25370522E+004
   489.8496  0.23674844E+006  0.33744440E+006  0.65222522E+006  0.28463873E+006  0.28463796E+006  0.72936684E+003  0.72461483E+003  0.33384367E+004  0.30316946E+004
   490.9774  0.34802355E+006  0.49580601E+006  0.95884836E+006  0.41842681E+006  0.41842571E+006  0.68551818E+003  0.68121043E+003  0.43980661E+004  0.39457072E+004
   492.1053  0.55383154E+006  0.78874179E+006  0.15259384E+007  0.66587291E+006  0.66587121E+006  0.66705935E+003  0.66313025E+003  0.64405311E+004  0.57188668E+004
   493.2331  0.97967824E+006  0.13949101E+007  0.26993345E+007  0.11778742E+007  0.11778712E+007  0.69544771E+003  0.69185303E+003  0.10754268E+005  0.94759318E+004
   494.3609  0.19272390E+007  0.27437489E+007  0.53102812E+007  0.23171386E+007  0.23171328E+007  0.82390462E+003  0.82060877E+003  0.20438802E+005  0.17922217E+005
   495.4887  0.33327720E+007  0.47445208E+007  0.91831405E+007  0.40070287E+007  0.40070188E+007  0.10399730E+004  0.10369450E+004  0.34837654E+005  0.30484485E+005
   496.6165  0.27451293E+007  0.39079826E+007  0.75639362E+007  0.33004989E+007  0.33004907E+007  0.90080238E+003  0.89800086E+003  0.28753253E+005  0.25167772E+005
   497.7444  0.14053459E+007  0.20007644E+007  0.38722581E+007  0.16896611E+007  0.16896568E+007  0.62960269E+003  0.62699788E+003  0.14942002E+005  0.13106959E+005
   498.8722  0.74521360E+006  0.10610407E+007  0.20533129E+007  0.89597613E+006  0.89597388E+006  0.48409905E+003  0.48167367E+003  0.81213252E+004  0.71487133E+004
   500.0000  0.44341097E+006  0.63140569E+006  0.12217207E+007  0.53311533E+006  0.53311397E+006  0.40591537E+003  0.40365304E+003  0.49876442E+004  0.44092865E+004
   501.1278  0.28972228E+006  0.41261436E+006  0.79824620E+006  0.34833373E+006  0.34833283E+006  0.35678406E+003  0.35466950E+003  0.33795817E+004  0.30019634E+004
   502.2556  0.20280369E+006  0.28887244E+006  0.55875181E+006  0.24383061E+006  0.24382997E+006  0.32173687E+003  0.31975634E+003  0.24605724E+004  0.21964600E+004
   503.3835  0.14940765E+006  0.21285145E+006  0.41162625E+006  0.17963207E+006  0.17963159E+006  0.29452589E+003  0.29266717E+003  0.18885172E+004  0.16941166E+004
   504.5113  0.11443992E+006  0.16306438E+006  0.31527832E+006  0.13759008E+006  0.13758971E+006  0.27221484E+003  0.27046710E+003  0.15079730E+004  0.13592112E+004
   505.6391  0.90365421E+005  0.12878486E+006  0.24894572E+006  0.10864516E+006  0.10864486E+006  0.25326184E+003  0.25161548E+003  0.12412421E+004  0.11238906E+004
   506.7669  0.73115585E+005  0.10422111E+006  0.20141775E+006  0.87905601E+005  0.87905355E+005  0.23677599E+003  0.23522247E+003  0.10462945E+004  0.95144036E+003
   507.8947  0.60347982E+005  0.86038564E+005  0.16624005E+006  0.72555074E+005  0.72554867E+005  0.22219923E+003  0.22073092E+003  0.89887258E+003  0.82066285E+003
   509.0226  0.50640829E+005  0.72213227E+005  0.13949502E+006  0.60884153E+005  0.60883977E+005  0.20915763E+003  0.20776772E+003  0.78420636E+003  0.71864534E+003
   510.1504  0.43092313E+005  0.61461292E+005  0.11869778E+006  0.51808581E+005  0.51808428E+005  0.19738631E+003  0.19606871E+003  0.69289091E+003  0.63716090E+003
   511.2782  0.37108805E+005  0.52937662E+005  0.10221265E+006  0.44614628E+005  0.44614495E+005  0.18668892E+003  0.18543813E+003  0.61870634E+003  0.57076498E+003
   512.4060  0.32286968E+005  0.46068134E+005  0.88928279E+005  0.38817361E+005  0.38817243E+005  0.17691447E+003  0.17572554E+003  0.55740343E+003  0.51573510E+003
   513.5338  0.28345179E+005  0.40451770E+005  0.78068688E+005  0.34078180E+005  0.34078074E+005  0.16794333E+003  0.16681178E+003  0.50599653E+003  0.46945336E+003
   514.6617  0.25082071E+005  0.35801881E+005  0.69079033E+005  0.30154979E+005  0.30154884E+005  0.15967846E+003  0.15860024E+003  0.46233564E+003  0.43003268E+003
   515.7895  0.22350628E+005  0.31909158E+005  0.61554235E+005  0.26871000E+005  0.26870915E+005  0.15203961E+003  0.15101104E+003  0.42483872E+003  0.39608292E+003
   516.9173  0.20041520E+005  0.28617938E+005  0.55193053E+005  0.24094796E+005  0.24094718E+005  0.14495936E+003  0.14397709E+003  0.39231904E+003  0.36656006E+003
   518.0451  0.18072096E+005  0.25810537E+005  0.49767755E+005  0.21726994E+005  0.21726923E+005  0.13838035E+003  0.13744133E+003  0.36387102E+003  0.34066639E+003
   519.1729  0.16378948E+005  0.23396671E+005  0.45103632E+005  0.19691358E+005  0.19691293E+005  0.13225326E+003  0.13135469E+003  0.33879295E+003  0.31778291E+003
   520.3008  0.14912782E+005  0.21306147E+005  0.41064865E+005  0.17928622E+005  0.17928561E+005  0.12653530E+003  0.12567462E+003  0.31653342E+003  0.29742253E+003
   521.4286  0.13634814E+005  0.19483737E+005  0.37544592E+005  0.16392154E+005  0.16392098E+005  0.12118907E+003  0.12036395E+003  0.29665369E+003  0.27919708E+003
   522.5564  0.12514193E+005  0.17885507E+005  0.34457815E+005  0.15044865E+005  0.15044813E+005  0.11618170E+003  0.11538997E+003  0.27880062E+003  0.26279365E+003
   523.6842  0.11526135E+005  0.16476162E+005  0.31736246E+005  0.13856955E+005  0.13856906E+005  0.11148409E+003  0.11072377E+003  0.26268700E+003  0.24795733E+003
   524.8120  0.10650546E+005  0.15227082E+005  0.29324520E+005  0.12804264E+005  0.12804219E+005  0.10707040E+003  0.10633964E+003  0.24807697E+003  0.23447845E+003
   525.9398  0.98709948E+004  0.14114867E+005  0.27177371E+005  0.11867039E+005  0.11866997E+005  0.10291754E+003  0.10221467E+003  0.23477513E+003  0.22218303E+003
   527.0677  0.91739446E+004  0.13120234E+005  0.25257499E+005  0.11029004E+005  0.11028964E+005  0.99004859E+002  0.98328306E+002  0.22261831E+003  0.21092551E+003
   528.1955  0.85481592E+004  0.12227178E+005  0.23533948E+005  0.10276649E+005  0.10276611E+005  0.95313769E+002  0.94662083E+002  0.21146918E+003  0.20058320E+003
   529.3233  0.79842512E+004  0.11422327E+005  0.21980856E+005  0.95986885E+004  0.95986530E+004  0.91827518E+002  0.91199353E+002  0.20121140E+003  0.19105198E+003
   530.4511  0.74743287E+004  0.10694437E+005  0.20576478E+005  0.89856335E+004  0.89855999E+004  0.88530956E+002  0.87925061E+002  0.19174575E+003  0.18224289E+003
   531.5789  0.70117178E+004  0.10034002E+005  0.19302430E+005  0.84294603E+004  0.84294285E+004  0.85410347E+002  0.84825559E+002  0.18298710E+003  0.17407951E+003
   532.7068  0.65907449E+004  0.94329356E+004  0.18143078E+005  0.79233473E+004  0.79233171E+004  0.82453207E+002  0.81888443E+002  0.17486204E+003  0.16649578E+003
   533.8346  0.62065611E+004  0.88843307E+004  0.17085067E+005  0.74614650E+004  0.74614363E+004  0.79648166E+002  0.79102415E+002  0.16730688E+003  0.15943432E+003
   534.9624  0.58550034E+004  0.83822545E+004  0.16116925E+005  0.70388080E+004  0.70387807E+004  0.76984845E+002  0.76457163E+002  0.16026614E+003  0.15284507E+003
   536.0902  0.55324808E+004  0.79215899E+004  0.15228761E+005  0.66510592E+004  0.66510332E+004  0.74453752E+002  0.73943256E+002  0.15369125E+003  0.14668411E+003
   537.2180  0.52358832E+004  0.74979042E+004  0.14412006E+005  0.62944791E+004  0.62944542E+004  0.72046190E+002  0.71552054E+002  0.14753951E+003  0.14091279E+003
   538.3459  0.49625057E+004  0.71073423E+004  0.13659209E+005  0.59658157E+004  0.59657919E+004  0.69754175E+002  0.69275626E+002  0.14177324E+003  0.13549694E+003
   539.4737  0.47099870E+004  0.67465387E+004  0.12963864E+005  0.56622301E+004  0.56622074E+004  0.67570368E+002  0.67106679E+002  0.13635906E+003  0.13040624E+003
   540.6015  0.44762585E+004  0.64125447E+004  0.12320275E+005  0.53812352E+004  0.53812135E+004  0.65488010E+002  0.65038501E+002  0.13126728E+003  0.12561369E+003
   541.7293  0.42595017E+004  0.61027679E+004  0.11723430E+005  0.51206448E+004  0.51206240E+004  0.63500869E+002  0.63064899E+002  0.12647143E+003  0.12109517E+003
   542.8571  0.40581129E+004  0.58149218E+004  0.11168912E+005  0.48785306E+004  0.48785106E+004  0.61603189E+002  0.61180155E+002  0.12194782E+003  0.11682907E+003
   543.9850  0.38706731E+004  0.55469836E+004  0.10652812E+005  0.46531867E+004  0.46531675E+004  0.59789646E+002  0.59378981E+002  0.11767518E+003  0.11279596E+003
   545.1128  0.36959237E+004  0.52971585E+004  0.10171664E+005  0.44430999E+004  0.44430814E+004  0.58055310E+002  0.57656479E+002  0.11363437E+003  0.10897834E+003
   546.2406  0.35327447E+004  0.50638495E+004  0.97223812E+004  0.42469236E+004  0.42469058E+004  0.56395611E+002  0.56008110E+002  0.10980813E+003  0.10536039E+003
   547.3684  0.33801369E+004  0.48456316E+004  0.93022125E+004  0.40634565E+004  0.40634393E+004  0.54806304E+002  0.54429658E+002  0.10618083E+003  0.10192777E+003
   548.4962  0.32372067E+004  0.46412304E+004  0.89086961E+004  0.38916243E+004  0.38916078E+004  0.53283447E+002  0.52917206E+002  0.10273829E+003  0.98667460E+002
   549.6241  0.31031530E+004  0.44495034E+004  0.85396252E+004  0.37304638E+004  0.37304478E+004  0.51823370E+002  0.51467108E+002  0.99467635E+002  0.95567627E+002
   550.7519  0.29772558E+004  0.42694236E+004  0.81930169E+004  0.35791094E+004  0.35790940E+004  0.50422654E+002  0.50075970E+002  0.96357131E+002  0.92617461E+002
   551.8797  0.28588667E+004  0.41000661E+004  0.78670850E+004  0.34367816E+004  0.34367668E+004  0.49078113E+002  0.48740625E+002  0.93396065E+002  0.89807087E+002
   553.0075  0.27474005E+004  0.39405958E+004  0.75602175E+004  0.33027767E+004  0.33027624E+004  0.47786772E+002  0.47458118E+002  0.90574637E+002  0.87127465E+002
   554.1353  0.26423278E+004  0.37902577E+004  0.72709564E+004  0.31764584E+004  0.31764445E+004  0.46545850E+002  0.46225689E+002  0.87883870E+002  0.84570297E+002
   555.2632  0.25431689E+004  0.36483673E+004  0.69979805E+004  0.30572498E+004  0.30572364E+004  0.45352749E+002  0.45040756E+002  0.85315519E+002  0.82127961E+002
   556.3910  0.24494882E+004  0.35143030E+004  0.67400901E+004  0.29446274E+004  0.29446144E+004  0.44205034E+002  0.43900901E+002  0.82862004E+002  0.79793436E+002
   557.5188  0.23608896E+004  0.33874996E+004  0.64961941E+004  0.28381148E+004  0.28381022E+004  0.43100427E+002  0.42803859E+002  0.80516340E+002  0.77560250E+002
   558.6466  0.22770121E+004  0.32674418E+004  0.62652982E+004  0.27372779E+004  0.27372657E+004  0.42036789E+002  0.41747508E+002  0.78272086E+002  0.75422426E+002
   559.7744  0.21975261E+004  0.31536593E+004  0.60464947E+004  0.26417208E+004  0.26417089E+004  0.41012114E+002  0.40729855E+002  0.76123286E+002  0.73374434E+002
   560.9023  0.21221304E+004  0.30457222E+004  0.58389539E+004  0.25510810E+004  0.25510695E+004  0.40024516E+002  0.39749027E+002  0.74064432E+002  0.71411154E+002
   562.0301  0.20505491E+004  0.29432366E+004  0.56419161E+004  0.24650270E+004  0.24650159E+004  0.39072225E+002  0.38803264E+002  0.72090419E+002  0.69527834E+002
   563.1579  0.19825292E+004  0.28458413E+004  0.54546845E+004  0.23832546E+004  0.23832438E+004  0.38153573E+002  0.37890912E+002  0.70196507E+002  0.67720063E+002
   564.2857  0.19178383E+004  0.27532047E+004  0.52766191E+004  0.23054844E+004  0.23054739E+004  0.37266991E+002  0.37010410E+002  0.68378297E+002  0.65983738E+002
   565.4135  0.18562627E+004  0.26650216E+004  0.51071313E+004  0.22314595E+004  0.22314493E+004  0.36411001E+002  0.36160292E+002  0.66631692E+002  0.64315039E+002
   566.5414  0.17976055E+004  0.25810108E+004  0.49456789E+004  0.21609432E+004  0.21609332E+004  0.35584208E+002  0.35339172E+002  0.64952878E+002  0.62710404E+002
   567.6692  0.17416852E+004  0.25009133E+004  0.47917621E+004  0.20937172E+004  0.20937075E+004  0.34785297E+002  0.34545743E+002  0.63338298E+002  0.61166511E+002
   568.7970  0.16883342E+004  0.24244895E+004  0.46449191E+004  0.20295800E+004  0.20295706E+004  0.34013026E+002  0.33778773E+002  0.61784633E+002  0.59680253E+002
   569.9248  0.16373974E+004  0.23515181E+004  0.45047231E+004  0.19683452E+004  0.19683361E+004  0.33266222E+002  0.33037095E+002  0.60288778E+002  0.58248728E+002
   571.0526  0.15887314E+004  0.22817942E+004  0.43707790E+004  0.19098404E+004  0.19098315E+004  0.32543775E+002  0.32319608E+002  0.58847831E+002  0.56869215E+002
   572.1805  0.15422032E+004  0.22151277E+004  0.42427205E+004  0.18539056E+004  0.18538969E+004  0.31844636E+002  0.31625269E+002  0.57459073E+002  0.55539168E+002
   573.3083  0.14976893E+004  0.21513426E+004  0.41202077E+004  0.18003926E+004  0.18003841E+004  0.31167811E+002  0.30953093E+002  0.56119956E+002  0.54256195E+002
   574.4361  0.14550752E+004  0.20902749E+004  0.40029252E+004  0.17491634E+004  0.17491551E+004  0.30512360E+002  0.30302143E+002  0.54828088E+002  0.53018053E+002
   575.5639  0.14142543E+004  0.20317725E+004  0.38905794E+004  0.17000900E+004  0.17000819E+004  0.29877390E+002  0.29671535E+002  0.53581223E+002  0.51822632E+002
   576.6917  0.13751274E+004  0.19756936E+004  0.37828971E+004  0.16530531E+004  0.16530452E+004  0.29262056E+002  0.29060429E+002  0.52377252E+002  0.50667949E+002
   577.8195  0.13376019E+004  0.19219061E+004  0.36796238E+004  0.16079415E+004  0.16079338E+004  0.28665556E+002  0.28468028E+002  0.51214186E+002  0.49552136E+002
   578.9474  0.13015918E+004  0.18702869E+004  0.35805220E+004  0.15646517E+004  0.15646442E+004  0.28087128E+002  0.27893574E+002  0.50090158E+002  0.48473434E+002
   580.0752  0.12670165E+004  0.18207208E+004  0.34853701E+004  0.15230867E+004  0.15230794E+004  0.27526048E+002  0.27336350E+002  0.49003404E+002  0.47430183E+002
   581.2030  0.12338008E+004  0.17731004E+004  0.33939610E+004  0.14831563E+004  0.14831491E+004  0.26981628E+002  0.26795673E+002  0.47952264E+002  0.46420819E+002
   582.3308  0.12018743E+004  0.17273251E+004  0.33061009E+004  0.14447758E+004  0.14447688E+004  0.26453215E+002  0.26270893E+002  0.46935168E+002  0.45443862E+002
   583.4586  0.11711712E+004  0.16833008E+004  0.32216084E+004  0.14078659E+004  0.14078591E+004  0.25940187E+002  0.25761391E+002  0.45950635E+002  0.44497916E+002
   584.5865  0.11416298E+004  0.16409392E+004  0.31403138E+004  0.13723526E+004  0.13723459E+004  0.25441952E+002  0.25266582E+002  0.44997266E+002  0.43581659E+002
   585.7143  0.11131921E+004  0.16001577E+004  0.30620575E+004  0.13381663E+004  0.13381597E+004  0.24957945E+002  0.24785903E+002  0.44073735E+002  0.42693841E+002
   586.8421  0.10858039E+004  0.15608786E+004  0.29866901E+004  0.13052416E+004  0.13052352E+004  0.24487630E+002  0.24318822E+002  0.43178790E+002  0.41833278E+002
   587.9699  0.10594141E+004  0.15230289E+004  0.29140712E+004  0.12735173E+004  0.12735110E+004  0.24030494E+002  0.23864830E+002  0.42311243E+002  0.40998848E+002
   589.0977  0.10339749E+004  0.14865402E+004  0.28440686E+004  0.12429356E+004  0.12429295E+004  0.23586050E+002  0.23423443E+002  0.41469969E+002  0.40189487E+002
   590.2256  0.10094411E+004  0.14513479E+004  0.27765583E+004  0.12134425E+004  0.12134365E+004  0.23153830E+002  0.22994197E+002  0.40653901E+002  0.39404185E+002
   591.3534  0.98577018E+003  0.14173913E+004  0.27114234E+004  0.11849867E+004  0.11849808E+004  0.22733392E+002  0.22576650E+002  0.39862027E+002  0.38641984E+002
   592.4812  0.96292225E+003  0.13846132E+004  0.26485536E+004  0.11575203E+004  0.11575145E+004  0.22324309E+002  0.22170382E+002  0.39093385E+002  0.37901975E+002
   593.6090  0.94085956E+003  0.13529597E+004  0.25878452E+004  0.11309978E+004  0.11309922E+004  0.21926177E+002  0.21774989E+002  0.38347062E+002  0.37183291E+002
   594.7368  0.91954653E+003  0.13223798E+004  0.25292002E+004  0.11053766E+004  0.11053711E+004  0.21538607E+002  0.21390086E+002  0.37622190E+002  0.36485109E+002
   595.8647  0.89894959E+003  0.12928257E+004  0.24725262E+004  0.10806163E+004  0.10806109E+004  0.21161230E+002  0.21015306E+002  0.36917942E+002  0.35806647E+002
   596.9925  0.87903700E+003  0.12642517E+004  0.24177358E+004  0.10566787E+004  0.10566734E+004  0.20793690E+002  0.20650295E+002  0.36233534E+002  0.35147159E+002
   598.1203  0.85977879E+003  0.12366152E+004  0.23647465E+004  0.10335277E+004  0.10335225E+004  0.20435648E+002  0.20294718E+002  0.35568217E+002  0.34505936E+002
   599.2481  0.84114659E+003  0.12098755E+004  0.23134803E+004  0.10111293E+004  0.10111242E+004  0.20086780E+002  0.19948251E+002  0.34921277E+002  0.33882300E+002
   600.3759  0.82311356E+003  0.11839942E+004  0.22638631E+004  0.98945127E+003  0.98944626E+003  0.19746775E+002  0.19610586E+002  0.34292037E+002  0.33275606E+002
   601.5038  0.80565428E+003  0.11589350E+004  0.22158251E+004  0.96846294E+003  0.96845803E+003  0.19415335E+002  0.19281428E+002  0.33679847E+002  0.32685239E+002
   602.6316  0.78874468E+003  0.11346634E+004  0.21692999E+004  0.94813541E+003  0.94813059E+003  0.19092174E+002  0.18960491E+002  0.33084090E+002  0.32110611E+002
   603.7594  0.77236191E+003  0.11111466E+004  0.21242247E+004  0.92844123E+003  0.92843650E+003  0.18777018E+002  0.18647506E+002  0.32504176E+002  0.31551161E+002
   604.8872  0.75648431E+003  0.10883538E+004  0.20805399E+004  0.90935435E+003  0.90934970E+003  0.18469606E+002  0.18342210E+002  0.31939541E+002  0.31006354E+002
   606.0150  0.74109134E+003  0.10662555E+004  0.20381888E+004  0.89085006E+003  0.89084550E+003  0.18169686E+002  0.18044355E+002  0.31389647E+002  0.30475677E+002
   607.1429  0.72616346E+003  0.10448237E+004  0.19971177E+004  0.87290489E+003  0.87290041E+003  0.17877016E+002  0.17753700E+002  0.30853979E+002  0.29958640E+002
   608.2707  0.71168212E+003  0.10240320E+004  0.19572756E+004  0.85549654E+003  0.85549214E+003  0.17591363E+002  0.17470014E+002  0.30332047E+002  0.29454776E+002
   609.3985  0.69762969E+003  0.10038550E+004  0.19186139E+004  0.83860380E+003  0.83859948E+003  0.17312506E+002  0.17193077E+002  0.29823378E+002  0.28963635E+002
   610.5263  0.68398940E+003  0.98426881E+003  0.18810864E+004  0.82220653E+003  0.82220228E+003  0.17040230E+002  0.16922677E+002  0.29327523E+002  0.28484789E+002
   611.6541  0.67074529E+003  0.96525051E+003  0.18446492E+004  0.80628552E+003  0.80628135E+003  0.16774330E+002  0.16658608E+002  0.28844050E+002  0.28017826E+002
   612.7820  0.65788216E+003  0.94677837E+003  0.18092605E+004  0.79082251E+003  0.79081841E+003  0.16514608E+002  0.16400675E+002  0.28372546E+002  0.27562354E+002
   613.9098  0.64538554E+003  0.92883167E+003  0.17748804E+004  0.77580010E+003  0.77579607E+003  0.16260875E+002  0.16148689E+002  0.27912615E+002  0.27117993E+002
   615.0376  0.63324164E+003  0.91139067E+003  0.17414709E+004  0.76120171E+003  0.76119775E+003  0.16012946E+002  0.15902469E+002  0.27463879E+002  0.26684383E+002
   616.1654  0.62143730E+003  0.89443653E+003  0.17089960E+004  0.74701153E+003  0.74700764E+003  0.15770647E+002  0.15661839E+002  0.27025973E+002  0.26261177E+002
   617.2932  0.60995999E+003  0.87795130E+003  0.16774210E+004  0.73321449E+003  0.73321066E+003  0.15533809E+002  0.15426632E+002  0.26598548E+002  0.25848040E+002
   618.4211  0.59879773E+003  0.86191784E+003  0.16467130E+004  0.71979618E+003  0.71979242E+003  0.15302268E+002  0.15196686E+002  0.26181269E+002  0.25444654E+002
   619.5489  0.58793909E+003  0.84631978E+003  0.16168405E+004  0.70674288E+003  0.70673918E+003  0.15075867E+002  0.14971845E+002  0.25773814E+002  0.25050711E+002
   620.6767  0.57737318E+003  0.83114150E+003  0.15877735E+004  0.69404147E+003  0.69403783E+003  0.14854456E+002  0.14751959E+002  0.25375876E+002  0.24665917E+002
   621.8045  0.56708955E+003  0.81636807E+003  0.15594834E+004  0.68167941E+003  0.68167583E+003  0.14637888E+002  0.14536884E+002  0.24987157E+002  0.24289987E+002
   622.9323  0.55707824E+003  0.80198520E+003  0.15319426E+004  0.66964472E+003  0.66964120E+003  0.14426024E+002  0.14326480E+002  0.24607372E+002  0.23922650E+002
   624.0602  0.54732972E+003  0.78797925E+003  0.15051249E+004  0.65792594E+003  0.65792247E+003  0.14218729E+002  0.14120613E+002  0.24236248E+002  0.23563643E+002
   625.1880  0.53783487E+003  0.77433716E+003  0.14790053E+004  0.64651212E+003  0.64650870E+003  0.14015871E+002  0.13919152E+002  0.23873520E+002  0.23212715E+002
   626.3158  0.52858497E+003  0.76104642E+003  0.14535597E+004  0.63539275E+003  0.63538938E+003  0.13817325E+002  0.13721975E+002  0.23518935E+002  0.22869623E+002
   627.4436  0.51957166E+003  0.74809508E+003  0.14287652E+004  0.62455780E+003  0.62455449E+003  0.13622969E+002  0.13528959E+002  0.23172250E+002  0.22534134E+002
   628.5714  0.51078694E+003  0.73547167E+003  0.14045996E+004  0.61399765E+003  0.61399439E+003  0.13432687E+002  0.13339988E+002  0.22833230E+002  0.22206023E+002
   629.6992  0.50222316E+003  0.72316521E+003  0.13810420E+004  0.60370309E+003  0.60369988E+003  0.13246365E+002  0.13154950E+002  0.22501648E+002  0.21885074E+002
   630.8271  0.49387295E+003  0.71116518E+003  0.13580721E+004  0.59366528E+003  0.59366212E+003  0.13063895E+002  0.12973737E+002  0.22177287E+002  0.21571078E+002
   631.9549  0.48572928E+003  0.69946147E+003  0.13356705E+004  0.58387575E+003  0.58387264E+003  0.12885170E+002  0.12796244E+002  0.21859937E+002  0.21263835E+002
   633.0827  0.47778539E+003  0.68804442E+003  0.13138186E+004  0.57432640E+003  0.57432333E+003  0.12710089E+002  0.12622370E+002  0.21549396E+002  0.20963150E+002
   634.2105  0.47003480E+003  0.67690474E+003  0.12924985E+004  0.56500941E+003  0.56500639E+003  0.12538553E+002  0.12452016E+002  0.21245470E+002  0.20668838E+002
   635.3383  0.46247129E+003  0.66603350E+003  0.12716933E+004  0.55591732E+003  0.55591434E+003  0.12370468E+002  0.12285090E+002  0.20947970E+002  0.20380718E+002
   636.4662  0.45508888E+003  0.65542215E+003  0.12513863E+004  0.54704294E+003  0.54704000E+003  0.12205741E+002  0.12121498E+002  0.20656715E+002  0.20098617E+002
   637.5940  0.44788185E+003  0.64506248E+003  0.12315619E+004  0.53837938E+003  0.53837648E+003  0.12044283E+002  0.11961154E+002  0.20371531E+002  0.19822367E+002
   638.7218  0.44084467E+003  0.63494657E+003  0.12122048E+004  0.52992001E+003  0.52991716E+003  0.11886009E+002  0.11803971E+002  0.20092249E+002  0.19551806E+002
   639.8496  0.43397205E+003  0.62506685E+003  0.11933006E+004  0.52165847E+003  0.52165565E+003  0.11730835E+002  0.11649867E+002  0.19818706E+002  0.19286779E+002
   640.9774  0.42725891E+003  0.61541601E+003  0.11748351E+004  0.51358863E+003  0.51358586E+003  0.11578681E+002  0.11498762E+002  0.19550745E+002  0.19027134E+002
   642.1053  0.42070034E+003  0.60598704E+003  0.11567949E+004  0.50570461E+003  0.50570188E+003  0.11429469E+002  0.11350579E+002  0.19288213E+002  0.18772726E+002
   643.2331  0.41429164E+003  0.59677318E+003  0.11391670E+004  0.49800075E+003  0.49799806E+003  0.11283124E+002  0.11205242E+002  0.19030965E+002  0.18523414E+002
   644.3609  0.40802827E+003  0.58776794E+003  0.11219391E+004  0.49047160E+003  0.49046894E+003  0.11139572E+002  0.11062680E+002  0.18778859E+002  0.18279062E+002
   645.4887  0.40190588E+003  0.57896507E+003  0.11050989E+004  0.48311192E+003  0.48310930E+003  0.10998744E+002  0.10922823E+002  0.18531757E+002  0.18039539E+002
   646.6165  0.39592026E+003  0.57035855E+003  0.10886351E+004  0.47591666E+003  0.47591407E+003  0.10860569E+002  0.10785601E+002  0.18289528E+002  0.17804718E+002
   647.7444  0.39006737E+003  0.56194257E+003  0.10725365E+004  0.46888095E+003  0.46887840E+003  0.10724983E+002  0.10650950E+002  0.18052043E+002  0.17574475E+002
   648.8722  0.38434331E+003  0.55371156E+003  0.10567924E+004  0.46200012E+003  0.46199761E+003  0.10591921E+002  0.10518805E+002  0.17819178E+002  0.17348691E+002
   650.0000  0.37874433E+003  0.54566014E+003  0.10413923E+004  0.45526965E+003  0.45526717E+003  0.10461320E+002  0.10389105E+002  0.17590815E+002  0.17127253E+002
